139,140,19,19,20,43,57,35,0
133,138,19,20,19,40,58,35,0
79,108,21,22,31,71,62,43,0
77,110,17,19,32,69,64,44,0
70,112,19,19,32,73,65,44,0
72,110,20,18,33,73,64,44,0
72,101,23,20,33,75,64,43,0
64,72,21,17,29,63,63,35,0
64,63,21,19,27,62,39,21,0
61,55,20,20,27,57,35,17,0
54,50,18,19,28,65,35,19,0
49,43,15,17,28,65,34,19,0
48,37,13,17,22,50,27,17,0
51,36,13,16,24,59,29,17,0
55,44,14,15,23,60,31,20,0
65,75,14,16,23,51,28,16,0
66,77,15,15,24,53,28,16,0
66,79,16,13,27,57,30,17,0
59,75,16,14,26,47,25,20,0
53,70,14,14,26,50,21,19,0
42,34,14,15,25,49,22,20,0
40,33,18,18,25,52,22,21,0
41,39,32,26,20,44,19,22,0
39,39,32,26,20,43,19,18,0
38,37,36,28,19,35,18,18,0
32,47,41,32,21,32,19,19,0
37,51,49,45,19,21,17,21,0
34,44,48,73,18,19,21,21,0
32,44,50,80,21,18,20,22,0
31,44,49,80,20,16,20,21,0
28,32,46,81,19,18,24,24,0
18,23,38,77,21,15,48,26,0
16,22,29,48,20,14,49,26,0
19,22,27,40,17,15,50,25,0
18,24,28,40,17,18,51,27,0
17,23,26,42,19,16,51,22,0
19,23,36,66,18,16,31,18,0
20,21,38,70,19,28,28,18,0
18,19,37,69,20,31,25,17,0
18,16,35,68,19,30,22,16,0
19,15,35,64,20,31,17,15,0
16,12,22,34,18,32,13,14,0
18,14,26,36,21,42,13,14,0
19,12,30,77,22,80,15,14,0
18,12,30,83,23,83,17,14,0
18,14,33,89,22,87,17,14,0
19,15,33,90,21,88,19,13,0
16,14,29,86,18,80,18,12,0
13,17,24,53,16,42,17,12,0
14,18,24,45,15,35,15,14,0
12,17,18,68,14,25,15,14,0
12,17,19,74,15,20,14,14,0
14,16,16,74,15,17,14,15,0
14,16,16,73,14,17,17,15,0
15,14,17,75,15,18,45,15,0
15,15,23,65,21,81,66,16,0
16,18,32,78,28,94,78,19,0
15,21,41,93,28,102,82,19,0
15,20,42,95,34,129,89,19,0
15,20,41,91,34,133,84,19,0
18,20,39,79,48,123,73,21,0
17,18,37,73,46,120,78,20,0
16,15,27,50,47,117,85,19,0
15,16,28,61,45,90,86,19,0
18,25,42,146,49,120,130,23,0
17,25,43,152,49,276,140,22,0
19,25,41,153,82,293,144,23,0
20,25,43,166,106,331,152,25,0
20,25,43,163,106,335,150,26,0
18,18,29,95,106,328,115,22,0
18,17,25,85,100,211,101,22,0
16,16,23,100,76,182,91,20,0
16,14,24,89,35,104,72,18,0
16,16,31,104,38,88,66,17,0
14,13,31,107,36,70,84,16,0
12,14,33,108,35,55,82,15,0
15,18,43,93,32,57,82,16,0
17,17,47,127,30,49,79,17,0
16,18,47,127,28,59,85,18,0
18,19,49,128,27,68,86,18,0
19,18,50,133,28,70,103,21,0
21,30,70,164,44,105,94,22,0
20,31,71,140,46,109,99,21,0
20,29,69,136,43,108,107,21,0
20,30,73,147,46,111,124,21,0
20,31,80,176,65,248,120,18,0
18,23,70,168,68,267,177,21,0
23,33,85,202,73,268,184,21,0
24,37,91,206,77,273,177,21,0
26,39,93,200,98,365,160,25,0
30,46,99,180,98,330,189,32,0
29,48,102,188,94,334,161,28,0
29,45,100,160,92,338,153,29,0
29,44,102,156,91,335,159,30,0
26,43,98,157,85,243,173,27,0
24,37,95,266,210,223,142,28,0
23,34,91,290,221,198,121,28,0
26,30,81,297,224,187,117,28,0
26,32,85,300,228,188,133,28,0
29,34,91,321,225,168,126,30,0
28,35,93,256,111,117,128,21,0
33,57,165,252,94,100,140,23,0
31,68,192,305,173,120,160,24,0
32,75,211,314,189,176,148,24,0
31,74,213,297,193,182,134,22,0
32,79,229,335,196,184,124,22,0
28,66,190,329,193,170,104,21,0
26,56,166,278,123,157,72,17,0
25,47,136,264,89,92,50,16,0
23,48,134,268,80,84,48,17,0
21,35,96,211,118,79,56,16,0
21,32,77,178,122,80,78,15,0
18,30,67,171,122,75,96,15,0
19,27,67,191,123,64,101,15,0
20,24,59,191,120,63,100,13,0
20,22,57,180,72,107,94,13,0
18,21,54,164,64,138,79,15,0
18,21,56,163,57,142,50,16,0
16,20,51,153,55,140,57,16,0
14,18,47,134,65,144,55,15,0
14,18,44,119,66,130,55,14,0
24,20,43,117,81,151,57,15,0
26,19,49,110,95,151,59,14,0
26,21,49,93,94,151,65,16,0
26,21,52,116,103,149,85,16,0
27,20,57,137,104,138,89,16,0
25,18,55,136,94,75,88,14,0
26,19,45,132,82,69,87,14,0
27,15,39,120,81,63,73,13,0
27,18,36,92,55,57,95,14,0
26,17,27,51,45,48,98,15,0
20,18,27,52,42,47,103,16,0
17,19,24,39,33,50,103,18,0
15,18,26,50,37,62,103,19,0
21,17,32,61,34,58,62,18,0
22,17,32,64,32,56,50,19,0
25,17,33,69,32,53,57,21,0
25,16,37,78,35,51,59,20,0
25,18,41,77,30,35,58,18,0
20,20,44,81,29,29,58,18,0
19,20,44,91,28,27,56,18,0
24,19,44,91,25,24,30,13,0
24,20,40,86,20,22,20,13,0
24,18,36,83,19,27,21,13,0
24,17,29,82,22,29,37,14,0
25,17,35,72,23,28,39,12,0
19,19,35,66,23,30,40,13,0
16,18,35,63,24,32,43,15,0
16,18,35,60,25,29,43,15,0
15,14,31,57,24,28,26,15,0
15,18,24,59,26,30,28,16,0
15,16,27,84,26,28,33,17,0
25,17,31,109,34,34,31,16,0
26,17,30,112,34,35,30,15,0
28,17,30,107,32,34,30,15,0
29,14,25,102,30,32,26,14,0
27,14,21,87,33,35,20,13,0
19,13,16,54,25,29,26,13,0
17,15,16,48,25,27,29,14,0
12,16,16,45,27,27,29,14,0
10,17,17,43,27,27,29,13,0
22,18,17,36,23,24,28,13,0
25,18,16,30,20,21,21,13,0
47,18,16,25,18,18,17,15,0
68,18,16,25,16,18,16,17,0
70,18,15,22,15,18,15,18,0
90,20,15,17,15,16,19,38,0
90,20,16,16,14,15,17,40,0
86,21,17,16,15,15,18,40,0
76,53,15,15,13,15,18,40,0
81,71,18,16,14,15,20,40,0
146,186,25,17,14,14,18,25,0
182,211,27,16,14,13,18,25,0
188,223,26,17,16,15,17,26,0
196,222,27,16,18,14,19,28,0
208,220,28,16,17,14,18,29,0
190,164,24,16,17,15,16,26,0
160,132,22,15,17,15,16,24,0
155,121,22,16,16,15,16,22,0
146,114,21,17,14,17,14,20,0
127,109,19,17,15,15,12,17,0
73,65,15,16,14,13,12,15,0
86,122,16,17,14,15,14,15,0
113,127,20,17,17,16,15,18,0
110,128,21,17,16,15,17,16,0
111,129,21,16,19,16,18,17,0
109,130,22,15,19,16,18,18,0
98,99,22,15,19,17,18,17,0
62,88,21,14,18,15,17,16,0
60,86,20,13,18,17,15,17,0
97,178,23,14,15,18,15,18,0
98,183,21,15,15,18,15,18,0
96,179,20,16,15,17,14,19,0
92,178,18,14,16,17,14,18,0
97,180,19,15,15,14,15,17,0
101,125,17,15,15,12,16,21,0
147,186,22,16,16,15,17,25,0
152,185,23,15,16,14,17,26,0
156,183,23,15,14,14,16,26,0
156,183,22,15,14,15,16,27,0
134,161,21,14,13,15,15,24,0
89,76,16,13,13,12,16,20,0
102,109,18,14,12,14,16,18,0
95,112,18,15,15,15,16,18,0
91,112,18,15,14,15,15,18,0
96,113,17,15,16,15,15,16,0
97,151,17,15,16,16,15,17,0
94,134,15,14,17,14,16,18,0
121,145,15,14,14,15,16,17,0
123,151,15,15,15,13,16,16,0
157,155,17,14,14,13,16,18,0
153,122,16,14,14,13,15,17,0
145,109,17,14,14,13,14,16,0
124,100,15,13,14,14,13,16,0
131,121,14,14,14,14,15,19,0
113,119,14,15,13,14,15,19,0
115,122,15,13,12,14,15,19,0
112,120,13,14,14,14,15,19,0
114,111,15,13,15,12,15,21,0
113,100,16,13,13,13,13,17,0
78,98,16,14,16,14,14,17,0
81,92,16,14,17,15,13,18,0
104,102,15,14,18,15,14,18,0
101,117,15,14,18,16,13,17,0
100,97,14,14,18,17,14,18,0
113,103,14,13,16,15,14,17,0
116,99,13,16,16,16,14,20,0
104,100,12,17,15,16,15,19,0
102,102,16,32,40,16,16,19,0
94,99,18,42,59,16,15,18,0
83,106,19,53,169,21,16,19,0
81,110,22,56,175,25,16,16,0
103,134,27,66,181,25,15,18,0
117,130,37,119,460,81,43,30,0
130,144,59,231,592,136,59,38,0
130,137,62,235,615,143,61,40,0
141,172,65,264,673,146,63,41,0
123,161,66,264,718,152,64,41,0
109,155,61,245,637,139,51,35,0
93,143,43,179,601,100,39,30,0
89,139,45,222,608,99,37,28,0
58,86,42,192,557,96,37,27,0
49,63,39,194,530,91,36,27,0
59,112,40,195,482,85,34,26,0
56,117,45,166,380,70,28,23,0
56,122,38,97,310,59,26,22,0
53,123,75,135,288,56,22,21,0
48,120,101,231,279,50,21,20,0
31,72,111,240,261,40,19,18,0
27,62,113,237,256,37,19,16,0
27,50,130,261,240,26,17,15,0
24,51,152,329,233,25,16,16,0
23,48,144,288,163,21,17,16,0
23,46,144,292,122,20,16,16,0
26,60,181,349,111,22,14,18,0
33,73,227,377,123,34,15,21,0
32,68,221,341,150,36,16,20,0
33,69,221,334,146,36,15,18,0
32,69,220,326,152,40,17,19,0
30,58,195,277,145,45,21,19,0
22,39,126,221,120,48,23,16,0
20,34,95,160,68,48,26,17,0
18,30,82,139,58,49,26,17,0
22,31,96,213,35,45,25,18,0
22,28,84,205,38,40,22,15,0
21,26,81,196,36,28,19,14,0
22,26,74,193,40,28,14,14,0
22,25,73,193,40,30,15,14,0
16,21,47,102,38,28,15,13,0
16,29,87,154,39,26,16,13,0
15,31,89,151,55,25,17,13,0
14,30,89,150,100,40,17,14,0
15,30,92,156,114,47,15,14,0
15,30,94,180,148,53,17,14,0
18,27,66,167,157,54,16,14,0
18,27,75,226,157,54,18,15,0
17,26,76,233,139,57,19,13,0
18,27,72,234,136,56,19,13,0
20,32,78,242,134,59,18,14,0
16,30,80,248,156,62,20,15,0
17,30,71,216,163,80,19,14,0
17,30,69,210,161,81,19,16,0
15,30,68,206,158,78,20,15,0
13,27,67,191,140,75,18,15,0
14,27,68,185,153,74,15,14,0
15,26,67,176,209,61,20,16,0
16,26,69,188,229,51,23,17,0
21,27,70,196,233,85,23,18,0
20,22,62,195,241,104,24,20,0
23,28,114,264,357,243,35,22,0
23,35,134,307,409,289,34,23,0
23,34,136,309,417,300,35,23,0
21,35,138,307,563,321,48,25,0
24,36,140,307,626,326,54,26,0
25,34,101,254,579,246,54,31,0
27,32,83,197,539,191,55,33,0
27,33,84,219,534,174,54,33,0
27,34,83,229,393,113,44,31,0
25,35,77,224,300,81,36,30,0
24,31,66,190,266,64,28,26,0
20,28,51,176,230,51,21,21,0
19,28,39,137,243,46,22,20,0
19,27,38,110,341,51,25,22,0
19,25,39,114,372,62,27,20,0
20,31,60,149,417,64,31,19,0
22,30,60,160,449,67,31,19,0
24,30,60,149,434,65,33,42,0
22,29,59,147,345,60,30,41,0
21,27,53,129,290,42,28,44,0
18,20,29,97,283,42,26,44,0
16,21,25,76,237,37,27,44,0
14,22,23,75,233,38,25,24,0
15,21,21,74,234,43,25,23,0
14,19,21,71,232,49,22,16,0
15,19,20,39,129,61,18,18,0
14,19,18,36,111,73,16,17,0
16,19,21,35,103,87,15,16,0
15,19,20,33,85,95,15,16,0
14,19,20,31,64,95,18,15,0
13,19,19,28,56,86,17,14,0
14,17,19,27,51,89,19,14,0
13,15,16,21,45,80,17,15,0
14,17,18,19,46,74,19,16,0
18,18,17,20,26,79,16,16,0
18,18,17,18,25,79,17,15,0
18,18,16,15,19,64,14,16,0
19,17,16,17,19,59,15,15,0
19,15,14,17,23,87,13,19,0
17,14,14,18,24,81,13,19,0
16,13,11,18,26,81,14,19,0
16,14,13,18,26,89,14,18,0
17,15,14,17,26,94,15,18,0
16,15,15,17,21,75,14,14,0
16,14,15,17,19,90,16,15,0
16,13,17,17,19,92,15,16,0
15,15,16,17,21,96,17,18,0
16,14,16,18,22,92,15,17,0
15,14,16,17,22,92,15,20,0
15,16,16,16,22,76,15,19,0
15,15,17,14,24,103,16,18,0
15,16,18,14,25,97,17,16,0
14,16,17,14,24,97,18,18,0
15,16,16,14,24,89,17,16,0
17,17,17,15,25,103,18,16,0
16,17,16,14,23,90,18,17,0
17,15,13,17,20,92,15,17,0
17,14,14,17,20,90,14,15,0
17,13,15,16,19,98,15,15,0
14,12,14,16,23,99,13,15,0
16,13,15,18,23,87,15,14,0
15,13,16,16,22,78,14,14,0
15,15,18,17,25,78,17,15,0
14,16,17,19,24,66,17,13,0
14,15,17,19,22,55,16,14,0
14,14,15,17,21,53,15,14,0
14,15,16,17,21,68,15,14,0
14,14,14,21,20,69,12,16,0
15,15,15,22,21,81,11,16,0
16,15,16,36,85,115,14,14,0
16,18,17,39,91,119,15,16,0
15,18,22,55,99,114,17,17,0
16,18,24,63,108,115,20,15,0
17,17,29,73,170,107,20,15,0
16,19,33,94,270,60,24,17,0
22,24,49,123,378,90,26,19,0
30,42,77,153,528,109,35,23,0
37,50,82,169,592,121,36,24,0
42,61,91,183,611,123,38,27,0
48,64,95,181,593,123,37,28,0
47,70,93,165,535,101,40,31,0
45,67,78,144,392,75,32,30,0
41,66,76,125,286,50,30,42,0
39,60,68,120,221,45,38,71,0
32,60,65,120,160,40,37,74,0
31,52,62,129,210,36,32,74,0
28,44,53,122,209,60,37,100,0
28,36,49,128,250,74,47,130,0
26,34,47,114,328,95,46,127,0
33,36,55,134,392,103,49,148,0
34,32,52,125,371,150,50,178,0
37,35,56,147,430,163,49,169,0
35,38,56,159,471,204,43,147,0
38,41,65,197,496,206,37,141,0
37,38,61,189,493,214,35,119,0
36,39,61,189,523,256,36,68,0
34,36,67,178,494,257,33,55,0
38,44,84,181,542,244,33,46,0
42,51,87,161,479,240,33,40,0
37,48,82,161,441,230,32,34,0
36,47,82,164,410,148,27,26,0
37,49,84,186,547,272,54,37,0
37,47,76,192,560,305,90,44,0
32,38,73,180,575,308,98,46,0
31,37,72,168,609,315,120,47,0
35,40,72,175,615,319,162,48,0
33,39,62,148,512,236,164,42,0
40,38,51,134,491,227,168,46,0
38,33,33,122,485,231,169,45,0
41,37,42,129,456,229,166,46,0
38,35,42,130,445,230,174,47,0
40,34,43,134,416,277,203,46,0
28,28,45,166,329,242,188,32,0
28,33,50,192,321,246,185,28,0
24,29,47,202,287,245,178,23,0
29,30,50,226,297,255,140,23,0
26,32,48,239,294,181,83,21,0
25,30,46,227,302,263,83,27,0
26,26,42,215,403,275,88,30,0
26,29,38,206,418,278,82,34,0
25,33,39,193,407,263,71,32,0
33,34,39,176,428,258,66,33,0
34,36,38,154,536,267,97,32,0
32,35,36,151,479,245,90,30,0
31,35,39,203,474,239,91,36,0
31,31,36,202,485,243,90,38,0
21,28,34,201,489,246,90,38,0
21,28,39,241,417,180,57,38,0
23,27,43,249,408,179,62,40,0
25,28,47,233,407,183,101,69,0
23,27,47,222,457,202,107,102,0
26,29,51,226,434,209,111,108,0
25,27,45,202,396,176,108,110,0
24,29,42,192,415,197,105,111,0
23,26,34,158,496,248,74,93,0
25,27,41,219,464,253,102,75,0
29,44,39,240,458,272,105,101,0
30,47,50,262,423,259,106,106,0
31,46,50,258,395,241,105,107,0
34,49,52,262,296,196,99,109,0
33,49,46,213,268,176,72,96,0
27,34,45,179,270,202,76,60,0
28,31,34,126,239,214,87,46,0
27,30,34,134,219,225,86,40,0
23,25,35,132,242,284,93,35,0
22,23,34,133,270,299,94,33,0
22,25,34,139,276,265,103,27,0
20,24,31,161,293,297,109,30,0
21,23,29,156,334,305,112,30,0
21,26,24,146,300,247,111,30,0
21,26,29,142,284,222,103,30,0
20,24,40,146,306,240,101,27,0
22,27,43,110,310,241,92,23,0
27,34,46,110,263,226,93,147,0
33,69,47,113,267,223,88,153,0
34,71,42,109,264,244,89,157,0
34,72,31,91,224,237,89,160,0
32,72,27,112,311,203,87,162,0
29,69,26,116,412,207,91,74,0
20,34,23,114,408,208,90,59,0
18,29,23,108,405,190,89,52,0
20,38,24,108,417,179,69,45,0
41,51,23,77,345,199,77,68,0
42,53,18,58,250,206,81,70,0
46,56,20,76,263,202,83,72,0
47,56,39,143,254,192,82,71,0
46,50,40,183,242,180,80,71,0
31,34,41,203,246,130,63,43,0
28,31,42,210,250,108,43,37,0
25,40,43,215,301,134,68,33,0
23,41,28,202,302,134,73,33,0
23,41,27,179,293,142,75,29,0
18,41,25,159,300,185,76,27,0
21,44,24,152,273,208,76,29,0
31,46,24,139,262,202,59,28,0
33,49,29,143,310,203,62,28,0
36,51,46,211,324,196,59,30,0
