99,104,165,647,1044,718,225,285,2
103,111,178,744,1070,680,242,317,2
122,139,226,833,1180,729,292,386,2
132,148,230,814,1202,703,343,543,2
123,143,220,823,1196,739,349,568,2
129,146,227,843,1217,735,367,621,2
130,141,238,816,1207,727,363,615,2
123,150,239,814,1135,705,370,577,2
134,157,243,799,1185,678,313,485,2
137,161,243,760,1122,634,313,467,2
140,165,250,770,1110,674,313,419,2
130,163,240,756,1122,806,305,399,2
141,149,226,737,1238,825,291,388,2
136,130,215,761,1155,817,278,415,2
138,128,217,811,1216,828,273,391,2
131,135,205,793,1211,832,249,361,2
138,152,204,770,1240,728,247,354,2
138,145,182,713,1141,718,219,401,2
127,150,176,700,1139,742,232,384,2
124,153,185,688,1171,800,244,409,2
122,138,170,668,1179,838,245,411,2
119,127,168,687,1100,827,246,416,2
124,118,163,691,1033,821,238,495,2
125,138,183,721,1046,817,249,434,2
123,132,163,661,1037,786,238,431,2
122,145,174,698,1108,768,225,436,2
126,154,189,738,1128,819,256,441,2
112,164,221,827,1257,862,258,339,2
117,159,217,838,1246,914,270,369,2
118,161,222,845,1194,902,287,432,2
121,167,222,839,1157,903,301,435,2
128,175,234,866,1155,959,339,465,2
115,167,225,790,1057,892,342,450,2
117,170,225,824,1091,825,341,430,2
122,183,236,851,1105,827,321,342,2
121,178,242,876,1094,780,318,314,2
110,167,222,814,1111,697,256,250,2
116,169,215,781,1089,711,262,253,2
111,174,235,813,1048,714,240,276,2
114,160,243,880,1069,792,299,292,2
125,161,244,889,1082,860,297,334,2
127,151,233,864,1105,875,290,382,2
129,151,217,849,1159,874,279,382,2
137,141,199,753,1184,887,309,404,2
136,159,192,680,1173,817,273,392,2
131,154,201,649,1159,749,263,375,2
128,169,217,667,1164,748,265,340,2
134,175,213,670,1106,740,251,374,2
127,165,208,674,1049,706,209,383,2
129,180,233,691,1088,694,230,403,2
143,185,227,690,1080,722,256,439,2
170,205,213,657,961,656,265,438,2
170,207,225,673,1021,699,283,378,2
187,224,252,744,1061,814,336,338,2
191,200,227,736,1070,847,346,369,2
185,201,244,774,1084,826,332,333,2
159,168,252,795,1163,854,330,342,2
169,180,303,837,1174,856,361,346,2
143,154,273,745,1162,769,316,316,2
143,164,276,753,1222,722,295,266,2
144,158,258,725,1216,807,311,254,2
150,165,259,758,1242,884,313,283,2
147,155,215,758,1176,928,290,346,2
149,154,214,770,1150,900,278,382,2
136,152,193,722,1012,881,256,394,2
135,154,211,836,1096,839,256,398,2
132,142,200,799,1066,767,264,409,2
106,117,164,739,1134,686,223,350,2
124,129,201,893,1183,722,243,342,2
138,134,245,963,1213,784,249,334,2
146,133,254,888,1207,873,274,343,2
154,142,254,886,1174,925,303,352,2
162,145,273,910,1132,924,309,377,2
162,156,275,811,1182,981,340,350,2
152,139,237,697,1180,929,333,362,2
152,168,226,733,1128,820,321,433,2
162,174,235,768,1115,734,293,439,2
161,178,224,774,1097,797,321,467,2
149,184,213,753,1051,785,285,479,2
154,201,235,802,1082,844,330,465,2
148,172,221,707,1042,869,303,429,2
159,177,233,703,1058,892,312,428,2
165,180,239,775,1083,901,309,415,2
180,169,250,746,1067,853,310,477,2
171,155,242,741,981,834,259,470,2
191,199,285,826,1134,887,339,459,2
189,194,287,817,1194,875,343,485,2
188,199,284,737,1223,810,335,461,2
183,194,270,770,1261,834,337,382,2
184,196,267,780,1276,843,343,402,2
155,162,214,658,1139,765,264,404,2
192,177,225,742,1210,789,242,375,2
191,175,240,755,1144,881,221,402,2
183,175,224,691,1051,861,208,438,2
182,181,220,635,1092,865,220,434,2
224,220,284,681,1061,881,297,438,2
187,211,274,595,974,847,330,401,2
187,211,262,558,1069,721,338,380,2
190,210,280,571,1107,755,375,381,2
203,223,328,642,1063,733,397,367,2
153,176,289,659,1189,747,383,314,2
136,169,272,607,1111,730,348,338,2
144,184,296,686,1028,724,346,359,2
151,179,279,674,1000,720,328,363,2
140,164,240,635,1026,761,311,356,2
140,164,222,639,915,713,255,377,2
136,156,220,652,949,721,270,422,2
128,148,199,661,964,777,284,392,2
124,157,209,687,1011,726,273,349,2
125,163,194,699,1024,660,257,395,2
140,161,194,664,1028,618,275,437,2
148,181,226,723,1101,670,295,366,2
140,171,221,718,1095,715,276,366,2
141,165,215,713,1077,721,270,420,2
133,141,214,724,1045,744,272,429,2
178,141,224,737,1044,832,276,443,2
182,140,238,776,1031,849,295,456,2
190,142,236,774,1146,911,309,467,2
180,139,237,764,1172,964,304,420,2
196,147,232,736,1147,959,315,470,2
182,155,252,772,1124,953,350,483,2
175,135,219,692,1152,939,314,482,2
169,133,225,661,1119,823,312,485,2
181,133,227,676,1097,759,316,501,2
176,132,233,692,1132,728,309,428,2
177,200,327,756,1269,776,332,358,2
179,212,331,770,1217,734,327,318,2
174,207,320,710,1148,747,316,281,2
171,213,325,704,1122,746,306,282,2
186,244,372,809,1177,786,329,290,2
145,180,265,686,1024,650,242,248,2
139,165,254,653,964,613,235,251,2
146,185,278,728,1022,600,257,256,2
146,196,281,712,1049,574,303,241,2
107,149,203,547,956,511,268,229,2
109,170,217,582,946,550,295,266,2
123,185,231,631,1015,600,319,276,2
109,160,197,544,883,545,297,283,2
114,140,183,542,872,529,248,373,2
127,145,188,559,913,591,252,366,2
130,126,178,550,944,619,251,385,2
128,102,155,513,925,610,234,410,2
133,123,150,523,1003,616,256,408,2
117,149,148,599,1050,635,264,351,2
99,147,136,571,1044,578,253,346,2
87,144,120,524,1004,571,215,296,2
62,142,119,483,920,554,195,247,2
55,128,131,485,891,575,172,236,2
84,133,164,476,862,568,172,196,2
91,134,178,509,880,631,202,186,2
95,139,190,528,969,647,233,265,2
118,154,206,592,1032,688,246,285,2
124,158,208,588,1050,640,231,290,2
109,131,180,522,964,643,217,277,2
115,140,197,584,1009,597,197,289,2
124,147,212,634,982,553,167,322,2
123,135,201,607,943,526,159,368,2
119,130,203,626,925,542,173,390,2
119,127,207,626,990,586,175,385,2
110,112,180,548,862,592,161,384,2
98,93,155,484,847,597,177,348,2
76,93,151,486,884,619,154,309,2
72,101,147,465,883,641,145,292,2
72,102,148,478,892,601,156,294,2
75,104,147,476,971,586,161,285,2
78,102,138,481,943,573,148,272,2
80,98,132,488,999,555,151,254,2
95,104,176,604,1088,589,204,264,2
115,104,189,654,1058,615,211,321,2
116,109,195,648,1068,577,212,364,2
126,118,207,670,1114,644,225,395,2
155,151,257,750,1176,782,277,481,2
165,154,240,740,1104,771,280,517,2
157,152,229,714,1119,775,280,511,2
155,154,233,734,1099,818,290,499,2
155,149,230,721,1108,795,296,490,2
127,122,183,672,1003,689,257,422,2
115,126,197,660,1065,697,278,396,2
109,126,188,631,1053,678,283,406,2
110,117,177,618,1103,656,271,418,2
106,132,196,666,1103,688,263,391,2
116,140,214,633,1132,678,265,407,2
103,123,191,537,1075,664,197,385,2
124,133,213,608,1068,707,234,459,2
122,137,228,641,954,724,236,441,2
127,130,220,607,1018,668,227,432,2
114,124,207,583,962,626,216,394,2
114,117,195,568,900,601,213,387,2
107,112,180,486,895,564,202,291,2
108,108,162,427,913,529,194,273,2
95,95,144,402,781,518,190,263,2
121,109,167,553,800,573,231,321,2
123,113,172,569,823,550,233,327,2
122,109,180,621,914,640,208,380,2
117,107,177,622,868,627,207,370,2
117,114,185,621,848,622,207,390,2
92,97,164,495,782,573,168,339,2
104,111,184,538,910,670,203,330,2
96,120,178,514,851,566,194,219,2
99,131,196,553,881,606,202,224,2
99,130,192,542,963,640,203,182,2
94,126,179,538,974,632,191,194,2
79,112,150,470,803,544,154,235,2
65,97,139,445,779,551,141,223,2
58,80,112,394,764,507,125,220,2
75,73,99,381,781,524,119,235,2
75,64,90,364,755,493,113,222,2
76,68,97,386,783,465,103,184,2
81,73,104,378,754,486,140,228,2
99,95,150,471,876,511,151,309,2
88,97,154,457,768,456,152,314,2
91,102,167,485,819,492,175,330,2
92,97,162,465,808,514,179,365,2
93,91,150,433,772,456,148,336,2
79,72,111,417,738,469,166,274,2
75,61,110,451,752,446,177,285,2
71,64,103,419,801,420,180,286,2
70,71,106,426,838,510,198,265,2
61,75,114,436,843,529,204,271,2
63,85,119,415,791,530,190,310,2
68,95,115,376,744,526,176,283,2
71,90,101,367,733,525,190,298,2
71,94,115,408,806,511,193,310,2
67,92,118,413,833,552,196,302,2
62,87,104,353,801,516,189,263,2
55,75,99,339,781,496,189,263,2
59,72,100,347,695,507,160,302,2
55,66,108,416,624,474,138,266,2
62,67,112,419,598,426,134,293,2
61,59,114,434,649,523,134,290,2
66,58,113,447,653,534,134,308,2
65,72,119,440,727,521,121,241,2
65,73,98,323,725,477,112,231,2
68,74,85,326,744,531,180,299,2
70,72,82,322,745,486,194,311,2
72,76,85,321,813,547,212,332,2
68,68,84,351,826,621,216,347,2
65,63,85,390,902,674,218,357,2
73,78,105,419,1011,653,160,281,2
82,85,109,409,1027,698,170,354,2
82,90,120,449,1063,680,157,379,2
85,90,119,429,990,643,164,376,2
88,100,121,425,983,581,175,380,2
76,92,112,422,877,641,173,383,2
68,104,140,533,964,574,166,322,2
67,100,135,533,940,552,175,272,2
63,117,150,578,1016,601,176,278,2
75,139,163,578,939,653,180,266,2
82,189,182,574,998,556,195,263,2
105,215,221,464,960,557,191,388,2
125,244,239,453,969,581,208,428,2
135,260,249,426,969,595,233,470,2
177,341,310,569,1082,613,257,531,2
203,348,329,691,1132,701,284,557,2
198,365,315,734,1099,706,279,510,2
193,358,327,761,1084,752,270,476,2
196,357,328,753,1017,730,249,422,2
155,286,285,680,900,704,226,354,2
120,257,251,557,778,646,188,332,2
129,219,257,532,739,624,194,387,2
134,253,243,485,760,594,189,453,2
124,250,223,504,847,570,184,473,2
130,232,210,476,897,543,167,471,2
140,237,245,474,909,571,168,461,2
129,230,215,444,877,567,160,392,2
124,213,204,472,949,603,182,375,2
124,198,218,416,876,645,191,366,2
118,200,216,394,834,665,241,376,2
105,190,190,366,813,616,236,395,2
98,181,181,352,804,626,236,360,2
106,153,189,312,696,627,218,282,2
110,147,174,354,765,564,220,297,2
116,180,172,365,802,587,200,346,2
118,193,215,437,845,590,203,310,2
123,208,235,471,923,659,225,312,2
119,222,248,509,950,622,227,328,2
117,223,252,503,938,647,219,314,2
131,202,244,487,942,598,204,294,2
129,201,200,430,897,672,209,329,2
129,188,175,446,962,694,211,393,2
127,176,157,442,990,676,218,393,2
120,191,156,457,951,737,228,375,2
99,182,155,471,920,751,221,357,2
100,170,180,495,991,713,221,350,2
100,174,185,524,906,645,208,286,2
96,178,213,582,902,668,187,267,2
99,171,222,585,936,562,168,263,2
98,177,234,598,912,540,157,225,2
100,164,208,584,894,541,155,227,2
102,169,217,589,929,536,168,223,2
106,164,188,558,855,497,186,229,2
108,171,175,532,807,504,201,272,2
135,179,165,510,825,501,204,286,2
166,335,282,562,815,506,199,264,2
200,441,337,555,818,519,191,262,2
206,448,331,543,858,522,194,305,2
232,464,359,563,910,586,219,352,2
220,460,359,552,896,638,213,353,2
215,419,296,478,837,647,208,343,2
181,304,223,473,813,653,215,343,2
181,294,243,493,886,711,214,345,2
153,303,205,464,854,688,178,277,2
244,534,307,540,939,714,191,321,2
288,623,327,611,1032,730,215,329,2
296,660,448,641,1030,705,204,328,2
298,675,440,583,925,642,204,296,2
324,728,452,578,915,630,215,412,2
285,672,404,582,943,589,249,460,2
237,569,387,589,967,594,234,480,2
238,549,252,503,993,677,246,527,2
250,538,242,528,1063,792,254,581,2
219,456,224,606,1082,793,250,533,2
212,350,207,583,1120,784,212,461,2
200,328,191,553,1074,784,235,442,2
191,299,185,644,1100,768,227,399,2
197,293,206,682,1130,673,219,372,2
195,269,214,669,1193,762,278,385,2
178,226,206,645,1161,794,291,382,2
185,310,258,665,1149,850,272,415,2
187,324,287,598,1086,848,274,449,2
178,344,311,630,1061,889,291,490,2
176,355,303,592,990,850,296,447,2
181,359,309,606,935,890,298,447,2
185,322,315,623,996,863,353,430,2
192,299,285,610,1021,868,362,408,2
178,265,243,491,1015,862,358,345,2
167,242,231,484,1011,843,321,365,2
155,249,230,465,972,781,318,360,2
165,212,201,389,927,771,275,396,2
161,254,202,377,894,717,258,368,2
157,257,229,436,820,696,252,374,2
162,264,236,419,801,661,234,349,2
170,296,260,506,795,705,245,346,2
160,300,256,514,775,625,248,291,2
150,273,255,542,804,617,240,293,2
138,265,236,509,787,564,227,212,2
135,257,237,536,888,574,241,233,2
115,181,204,476,904,596,220,275,2
100,170,163,488,945,627,180,266,2
108,288,170,479,992,706,182,256,2
110,288,162,504,1105,763,184,265,2
118,291,154,490,1037,827,193,298,2
127,294,155,482,1071,810,204,280,2
179,355,165,537,1102,874,296,293,2
1106,321,396,954,778,786,715,684,1
983,265,374,876,771,771,712,625,1
973,280,370,928,858,788,757,615,1
1012,278,388,921,896,745,797,636,1
948,288,378,889,866,827,761,623,1
857,288,418,912,876,748,791,604,1
878,271,451,988,880,762,744,556,1
810,269,447,925,777,710,612,520,1
717,267,415,904,664,772,632,471,1
714,240,409,961,743,690,674,371,1
788,238,364,963,708,706,638,373,1
731,252,322,906,639,686,655,369,1
774,232,392,969,640,731,724,351,1
839,231,442,1039,699,682,716,369,1
923,230,440,1046,623,726,749,498,1
875,236,451,1068,617,719,766,516,1
915,232,460,1069,587,736,802,515,1
950,230,428,1054,565,776,758,564,1
953,220,395,980,514,809,769,566,1
967,229,358,907,569,819,672,483,1
976,216,380,910,674,791,629,458,1
898,212,368,883,695,804,609,480,1
951,234,348,925,698,691,629,433,1
936,238,333,937,724,708,581,421,1
852,229,337,949,691,681,657,427,1
856,231,304,854,613,710,708,443,1
864,250,334,879,603,776,764,438,1
715,246,343,861,648,799,754,427,1
677,232,322,867,708,824,757,420,1
709,227,358,887,707,825,742,414,1
684,225,379,1009,740,811,740,424,1
721,240,444,1046,788,790,684,380,1
724,220,434,987,800,791,691,369,1
720,241,448,991,693,721,690,380,1
683,239,411,981,698,689,653,396,1
754,246,435,993,816,731,706,412,1
826,205,329,978,794,647,717,457,1
842,243,380,1082,764,709,726,450,1
958,292,412,1107,795,769,754,495,1
958,289,426,1119,802,780,759,475,1
926,275,397,1060,658,819,700,469,1
959,286,433,1079,643,869,643,532,1
951,273,385,996,700,843,552,557,1
846,212,386,988,696,784,539,510,1
853,233,392,976,684,830,565,501,1
833,240,390,1002,691,772,600,466,1
749,230,355,942,736,792,655,348,1
823,210,363,910,682,801,684,316,1
891,206,343,1015,670,818,656,347,1
887,217,383,1064,745,796,704,341,1
977,238,400,1003,771,779,809,441,1
897,236,456,1033,786,785,796,447,1
856,252,465,1094,803,796,825,471,1
869,264,452,1055,829,897,839,533,1
946,252,416,993,789,874,838,558,1
888,270,426,1044,778,939,774,584,1
1033,285,365,1018,781,924,799,591,1
1091,279,363,1050,731,973,795,588,1
1072,278,382,1068,751,895,797,572,1
1012,279,389,1122,730,899,779,582,1
1040,263,417,1097,741,908,770,510,1
973,255,429,1128,713,913,718,574,1
864,259,459,1140,712,810,733,558,1
977,313,565,1150,686,848,760,539,1
977,312,561,1146,734,872,717,542,1
933,310,545,1147,687,828,643,536,1
856,320,570,1143,682,813,681,455,1
866,306,568,1138,709,865,723,435,1
729,239,449,1032,724,864,674,455,1
788,255,499,1091,636,860,723,436,1
723,247,496,1131,640,926,759,413,1
827,227,459,1130,633,916,897,424,1
835,238,432,1092,677,903,885,465,1
795,241,470,1171,663,860,905,409,1
780,230,452,1237,687,830,942,404,1
861,242,466,1220,717,817,967,448,1
869,242,472,1270,716,796,890,487,1
869,235,481,1276,715,802,886,515,1
856,239,462,1206,702,815,926,542,1
799,233,425,1066,734,835,961,534,1
757,208,415,1099,707,768,954,524,1
702,209,446,1053,719,798,979,539,1
684,210,435,1005,655,767,982,516,1
678,193,478,1189,722,758,987,485,1
720,175,473,1239,730,774,912,469,1
702,173,435,1177,705,734,909,454,1
706,174,408,1156,648,740,866,434,1
700,168,389,1168,649,824,861,393,1
811,181,304,991,535,834,807,408,1
824,182,330,984,438,773,768,419,1
879,179,350,1010,442,799,684,482,1
848,181,352,1031,440,746,643,423,1
884,186,392,1036,451,677,579,479,1
777,191,417,1095,477,630,541,490,1
710,189,397,1024,517,694,592,506,1
660,211,378,1013,520,715,619,457,1
685,203,363,981,521,724,621,498,1
667,219,399,1061,589,726,611,499,1
734,212,373,967,582,743,657,523,1
889,247,359,963,608,775,650,594,1
889,238,379,948,610,872,665,600,1
881,231,375,947,601,901,664,567,1
910,206,319,902,519,865,684,567,1
914,210,341,1037,567,909,743,544,1
772,168,373,1055,510,829,753,439,1
722,142,335,1002,517,678,723,398,1
669,140,340,1021,540,655,703,399,1
662,143,338,1029,558,696,657,311,1
646,159,331,933,558,681,545,300,1
768,164,342,957,609,729,563,350,1
781,169,349,1000,587,778,598,380,1
843,208,362,973,589,781,629,419,1
781,247,384,979,581,797,656,450,1
923,320,438,1001,507,754,738,587,1
858,335,438,1043,414,743,706,574,1
922,347,477,1099,431,735,719,581,1
1003,339,463,1144,456,750,759,692,1
991,318,422,1111,456,741,780,705,1
843,239,364,1115,463,769,730,597,1
811,254,395,1109,493,820,752,672,1
732,240,353,1086,530,815,750,695,1
545,226,409,1139,534,772,651,576,1
676,223,437,1136,551,776,592,541,1
641,211,425,1060,553,767,607,553,1
745,161,372,977,567,692,585,540,1
809,173,379,956,535,672,608,566,1
814,187,375,962,504,673,686,560,1
756,185,357,966,521,612,729,573,1
840,193,359,1015,623,694,763,667,1
756,199,384,1080,598,710,784,617,1
721,190,388,1124,596,708,783,554,1
769,168,332,1025,589,806,740,607,1
810,166,323,1032,535,869,729,597,1
831,156,299,1065,421,844,680,533,1
861,163,261,968,481,850,652,516,1
880,156,244,883,484,880,656,538,1
822,156,275,971,473,798,710,462,1
794,152,290,946,495,743,756,470,1
688,149,329,946,546,667,704,407,1
678,133,327,967,486,634,674,412,1
651,168,377,1059,461,578,606,395,1
715,178,356,970,454,623,560,442,1
706,208,343,1002,551,590,564,529,1
714,220,333,973,580,587,641,516,1
714,226,320,948,597,591,706,515,1
775,198,348,1029,723,613,796,526,1
795,214,366,1073,736,630,842,520,1
835,243,419,1062,707,659,837,446,1
886,269,421,1091,659,690,794,524,1
955,296,461,1162,667,725,779,582,1
1029,342,477,1068,596,860,821,724,1
1080,337,469,1050,602,858,810,772,1
1095,317,440,1088,554,862,858,843,1
1051,299,470,1095,630,896,851,799,1
944,276,501,1171,705,886,809,757,1
867,244,425,1098,667,755,706,669,1
813,227,433,1094,687,728,628,659,1
730,238,502,1119,760,769,576,600,1
760,236,491,1130,704,716,752,649,1
840,236,493,1104,647,758,848,667,1
758,208,484,1158,673,821,844,603,1
721,215,481,1153,690,836,884,535,1
831,206,445,1109,655,814,888,543,1
795,218,444,1171,634,804,768,463,1
809,248,393,1095,641,786,739,530,1
882,286,421,1072,654,719,803,584,1
850,285,413,1113,699,697,796,600,1
774,275,398,1087,659,677,830,547,1
903,277,404,1023,649,734,825,635,1
951,282,445,1064,681,826,869,634,1
883,257,461,1061,652,871,867,581,1
903,280,505,1001,600,942,862,563,1
913,293,581,1097,605,928,787,590,1
835,281,588,1017,626,908,793,534,1
687,291,608,997,539,789,778,463,1
729,292,619,1024,522,767,712,471,1
766,302,632,1071,505,723,761,500,1
739,285,563,956,471,756,767,460,1
704,276,527,981,461,768,794,418,1
753,230,482,969,449,773,714,388,1
717,217,437,960,448,747,765,364,1
674,177,363,968,475,755,739,348,1
685,221,426,1030,546,752,737,369,1
636,216,416,1008,528,698,701,353,1
626,210,369,983,545,705,669,405,1
615,210,365,946,516,710,584,410,1
566,227,381,999,529,670,588,372,1
601,183,257,929,472,682,553,352,1
607,196,292,927,485,687,563,358,1
593,194,292,958,496,706,601,309,1
586,198,290,945,516,704,591,301,1
593,169,267,838,407,640,530,301,1
502,173,254,800,388,585,512,292,1
523,206,247,819,515,708,493,295,1
550,224,254,780,508,662,502,358,1
588,218,255,789,503,695,529,360,1
594,228,255,738,510,720,578,383,1
580,216,254,874,557,734,626,402,1
713,192,240,904,426,690,627,435,1
647,172,242,928,432,788,628,358,1
612,180,237,884,416,813,597,348,1
636,187,252,915,422,859,590,350,1
723,197,254,796,409,903,625,407,1
577,182,245,748,403,940,624,384,1
561,184,261,769,434,943,601,374,1
569,174,277,926,451,909,631,381,1
550,160,268,917,449,951,586,363,1
414,161,276,955,415,1023,521,252,1
475,170,270,941,418,964,509,252,1
542,165,251,867,392,922,538,270,1
595,169,228,757,380,904,537,275,1
590,160,203,761,402,829,509,263,1
584,135,184,749,455,748,491,260,1
574,133,187,738,452,754,513,253,1
569,136,173,779,410,724,474,279,1
557,130,189,788,423,759,507,269,1
525,130,183,770,381,777,513,249,1
556,130,172,680,313,721,579,291,1
552,120,176,785,313,673,560,271,1
539,119,197,735,318,658,560,221,1
500,122,215,765,333,691,519,251,1
535,134,238,816,373,710,560,287,1
533,148,258,840,398,739,549,273,1
474,151,270,740,397,803,586,277,1
493,135,262,796,389,817,588,284,1
537,138,231,732,346,745,607,276,1
525,122,215,678,330,727,590,250,1
566,123,230,716,289,708,526,298,1
636,125,225,796,301,648,538,301,1
593,147,243,786,309,683,509,309,1
583,150,238,760,338,716,513,312,1
685,164,240,806,337,680,500,318,1
644,166,246,843,378,736,574,274,1
605,166,245,787,360,756,545,319,1
668,167,249,779,378,758,577,336,1
682,163,257,782,379,730,588,348,1
562,160,272,768,406,710,589,358,1
624,148,264,781,407,614,524,375,1
646,160,308,902,456,595,518,349,1
590,152,290,868,433,556,496,372,1
530,171,327,937,430,616,454,358,1
591,181,336,901,440,642,480,350,1
533,188,336,853,408,678,558,323,1
624,172,290,730,378,677,599,374,1
642,183,289,797,413,662,603,330,1
666,192,280,707,401,605,588,337,1
655,181,260,695,379,670,558,324,1
673,186,263,701,401,651,491,346,1
571,207,269,706,419,661,470,332,1
636,206,275,749,459,720,603,426,1
671,186,240,793,468,754,625,450,1
641,195,283,868,448,724,646,457,1
643,186,253,853,426,742,647,437,1
672,160,233,837,417,750,639,406,1
614,149,236,768,338,727,488,324,1
566,146,245,734,339,710,511,366,1
612,126,202,696,387,689,510,361,1
564,136,236,750,405,688,527,377,1
567,133,245,732,393,669,555,375,1
595,151,255,755,450,621,587,430,1
588,157,258,757,521,703,541,366,1
521,174,269,809,516,748,555,368,1
509,175,281,773,502,746,547,360,1
473,189,288,747,523,792,594,389,1
401,180,298,732,508,814,622,322,1
444,184,303,738,419,757,636,321,1
546,168,277,669,397,729,607,327,1
621,159,241,614,394,694,617,319,1
592,139,228,657,428,684,546,277,1
580,122,188,662,463,766,533,264,1
562,125,179,658,475,718,554,250,1
467,132,192,698,461,705,562,233,1
420,131,192,712,477,748,542,241,1
459,154,209,688,429,741,532,267,1
509,159,202,625,383,736,480,256,1
481,143,188,631,376,759,537,252,1
497,142,184,593,408,777,532,259,1
488,146,194,674,395,773,620,314,1
502,132,189,724,392,812,595,284,1
493,134,194,764,391,738,625,317,1
541,137,206,850,416,793,583,335,1
537,134,198,821,427,760,610,355,1
580,132,187,753,467,761,629,303,1
559,133,185,725,454,703,655,345,1
565,127,183,717,481,711,698,313,1
569,115,175,628,458,617,674,332,1
563,109,181,654,460,650,658,300,1
508,100,173,650,403,612,581,302,1
482,92,160,610,410,631,559,248,1
485,93,151,567,385,606,505,273,1
417,99,171,572,445,657,500,235,1
399,105,166,502,409,663,511,247,1
489,114,185,558,462,714,485,229,1
534,131,199,610,453,683,485,236,1
518,130,224,697,420,667,454,206,1
521,148,256,740,411,677,474,218,1
656,159,270,827,397,658,440,242,1
603,165,278,850,349,629,429,252,1
563,151,278,847,349,703,401,300,1
608,149,261,825,411,734,495,323,1
766,159,220,829,451,758,536,391,1
662,149,210,762,446,776,527,406,1
657,147,228,757,486,815,529,411,1
734,167,242,813,542,799,580,426,1
694,175,256,805,511,800,524,431,1
528,165,288,835,475,790,467,390,1
692,189,314,918,511,781,520,442,1
728,190,291,935,478,742,529,468,1
692,190,286,947,431,730,484,455,1
737,194,283,924,459,793,485,487,1
739,204,295,906,465,808,517,472,1
659,180,290,906,479,844,493,405,1
686,197,315,903,497,889,488,372,1
690,190,331,938,495,894,551,409,1
635,187,323,942,496,887,601,379,1
671,174,288,925,502,891,569,383,1
649,187,286,931,531,962,545,394,1
567,165,273,931,517,946,608,390,1
546,161,243,844,515,941,667,341,1
562,158,264,863,519,958,625,368,1
545,163,251,810,472,943,674,386,1
559,150,216,727,428,818,712,373,1
660,151,205,674,419,768,660,394,1
714,157,222,712,419,724,562,381,1
688,168,216,712,438,646,549,330,1
699,167,236,734,510,675,487,297,1
655,196,313,805,528,733,524,278,1
599,196,306,790,544,734,516,273,1
541,191,303,813,541,772,620,326,1
630,176,299,836,500,858,679,320,1
655,171,296,846,430,828,704,336,1
712,161,247,776,392,850,687,374,1
667,191,301,831,462,964,695,378,1
650,200,310,853,492,960,614,325,1
718,223,322,845,501,909,569,455,1
675,247,356,847,532,1002,554,446,1
634,242,376,933,548,976,510,426,1
691,234,356,930,474,889,593,491,1
751,243,348,869,427,949,646,552,1
741,218,323,873,397,941,675,492,1
741,189,287,895,444,870,724,552,1
748,208,316,932,442,862,753,553,1
730,198,311,940,465,913,748,503,1
705,189,311,908,530,849,678,509,1
661,215,343,939,549,857,737,496,1
679,217,346,923,505,839,776,465,1
666,185,286,799,510,882,773,481,1
811,204,300,859,525,904,781,496,1
795,195,340,890,524,901,855,495,1
734,183,337,859,549,902,761,509,1
742,190,353,863,560,935,692,504,1
825,196,340,901,607,920,669,544,1
756,178,351,821,608,827,636,554,1
760,190,315,857,591,907,584,506,1
792,214,370,875,563,949,641,536,1
778,232,450,997,662,933,611,552,1
846,262,491,985,636,945,681,611,1
850,278,515,1011,694,931,649,602,1
841,270,512,979,696,865,668,604,1
874,242,466,983,706,832,708,616,1
879,236,436,918,658,864,772,612,1
751,242,446,966,654,839,754,560,1
675,240,394,904,577,896,816,536,1
687,235,392,905,567,911,776,512,1
612,241,397,854,541,850,678,429,1
609,231,325,837,493,899,622,413,1
650,205,294,821,447,917,639,371,1
652,186,286,849,444,943,558,364,1
662,187,286,830,497,925,618,439,1
702,181,280,912,533,1000,682,452,1
737,167,270,816,546,879,654,443,1
641,149,225,743,544,822,579,399,1
596,153,249,788,542,741,568,383,1
541,152,236,761,464,689,467,343,1
584,152,225,663,438,645,418,328,1
486,149,222,695,397,668,463,327,1
552,138,207,690,460,675,518,336,1
569,122,171,617,436,682,529,402,1
601,140,184,673,487,718,616,429,1
495,136,185,668,519,690,607,424,1
527,138,189,637,504,679,593,394,1
527,133,211,654,468,714,563,423,1
533,130,218,652,481,690,531,388,1
548,138,254,627,538,668,473,360,1
551,160,275,661,507,653,472,359,1
581,163,268,649,492,615,448,359,1
518,169,255,642,468,551,395,308,1
487,167,273,741,476,571,420,272,1
570,185,246,755,427,704,514,283,1
558,177,215,715,408,681,484,282,1
482,171,214,707,408,671,496,269,1
475,168,212,659,390,629,497,260,1
473,163,212,676,410,593,496,264,1
122,370,347,494,1072,749,325,285,2
137,394,364,589,1104,751,328,274,2
155,437,351,696,1253,786,355,318,2
148,441,333,701,1267,800,307,256,2
152,396,252,663,1164,809,299,301,2
157,371,258,653,1116,775,282,296,2
147,324,263,635,1136,779,294,321,2
145,376,268,590,996,743,254,281,2
139,372,263,592,964,702,251,293,2
122,329,268,570,959,669,218,228,2
125,342,257,552,965,644,202,243,2
175,380,247,584,941,776,235,250,2
162,290,240,585,965,779,251,253,2
164,290,242,582,930,737,249,259,2
178,293,229,602,892,784,267,301,2
170,307,261,638,982,757,274,300,2
146,269,231,565,978,694,242,301,2
143,242,229,601,957,726,242,292,2
159,247,234,626,1014,775,264,299,2
153,240,234,619,1133,741,264,296,2
161,213,192,572,1061,765,266,302,2
146,277,198,574,1030,725,297,301,2
153,296,228,502,1041,746,310,328,2
137,294,233,479,982,686,292,307,2
128,287,221,432,870,677,271,284,2
136,305,245,433,883,645,272,276,2
134,286,234,420,925,642,226,316,2
128,259,194,347,913,519,180,311,2
133,248,211,364,965,506,193,315,2
134,253,221,410,1003,491,191,310,2
124,221,193,408,967,475,174,328,2
110,151,186,431,902,410,174,299,2
106,151,202,447,836,430,176,286,2
104,163,188,443,778,454,153,310,2
100,158,179,448,837,533,160,313,2
83,145,173,431,838,580,173,285,2
78,126,176,391,889,588,168,247,2
72,116,156,417,938,582,163,241,2
64,100,136,440,984,610,169,206,2
86,122,123,405,986,580,165,197,2
92,118,121,419,962,544,149,200,2
96,132,139,454,966,632,136,225,2
100,131,129,434,961,694,167,231,2
119,138,135,401,954,711,162,304,2
109,116,137,441,912,734,154,305,2
110,125,139,477,967,784,182,304,2
108,106,113,458,951,688,192,308,2
104,104,106,443,922,605,166,307,2
82,104,126,508,964,608,182,234,2
77,129,133,478,992,568,184,239,2
74,135,131,436,933,547,169,244,2
79,140,140,462,912,582,174,266,2
87,148,169,556,952,617,178,258,2
98,173,164,528,887,568,171,300,2
97,174,170,532,893,584,164,290,2
94,168,178,561,966,565,150,277,2
97,172,175,518,922,557,133,234,2
99,175,155,427,928,563,130,251,2
85,141,134,384,932,573,115,189,2
83,116,118,353,844,543,122,191,2
88,110,105,318,783,545,131,201,2
82,108,105,334,818,517,127,192,2
72,103,101,328,776,515,136,181,2
78,122,118,350,808,613,151,176,2
76,116,115,380,809,611,150,177,2
75,115,117,355,793,585,151,174,2
71,105,113,358,795,604,154,175,2
76,104,115,341,859,563,143,159,2
73,85,109,352,808,448,139,171,2
72,89,108,331,786,487,143,182,2
85,95,119,360,824,571,162,205,2
85,112,118,375,837,563,159,210,2
83,121,113,416,771,629,172,235,2
80,118,95,382,760,609,163,228,2
81,119,98,388,829,577,156,219,2
68,117,90,366,786,533,144,199,2
81,218,140,385,786,573,141,182,2
79,223,159,395,834,549,146,171,2
84,225,168,403,923,567,148,171,2
83,226,169,403,887,565,146,165,2
115,306,191,453,932,545,143,151,2
115,353,186,457,951,512,159,167,2
169,480,196,461,1008,558,150,135,2
174,487,198,487,988,702,166,160,2
176,497,203,493,1010,751,170,163,2
168,490,185,487,1132,775,183,166,2
179,488,176,493,1148,789,186,157,2
198,557,238,485,1066,767,206,209,2
202,576,245,431,993,703,216,206,2
210,596,250,432,994,707,216,204,2
225,580,254,437,864,739,209,203,2
232,553,249,465,828,752,208,221,2
192,365,169,484,902,805,218,203,2
183,341,173,528,1121,792,215,194,2
183,313,180,623,1177,925,238,200,2
165,317,183,613,1180,913,235,194,2
140,282,187,624,1199,961,243,175,2
135,364,200,616,1246,986,231,171,2
144,354,198,658,1179,1007,254,207,2
138,354,200,619,1138,863,243,263,2
137,382,198,622,1148,827,242,282,2
138,399,211,643,1186,782,234,282,2
132,326,202,643,1142,694,224,274,2
128,345,209,627,1071,714,217,249,2
146,356,214,628,1058,743,209,198,2
165,362,233,651,1055,771,216,198,2
178,392,220,569,975,734,217,208,2
179,427,240,597,885,748,211,195,2
187,492,246,561,919,725,226,209,2
172,484,243,528,911,793,252,200,2
157,488,237,513,917,813,282,195,2
163,558,261,602,992,844,301,199,2
175,584,256,550,1049,842,304,238,2
171,593,253,594,1029,818,276,226,2
174,643,251,600,1056,787,275,231,2
179,640,257,637,1050,737,263,223,2
174,563,251,635,1144,865,294,230,2
181,527,252,667,1144,869,307,214,2
177,455,234,653,1166,872,320,223,2
173,366,226,650,1146,861,312,235,2
174,360,214,622,1162,916,300,225,2
170,331,212,651,1075,902,295,264,2
144,303,198,659,1053,916,295,254,2
155,303,211,626,1046,909,277,262,2
155,348,203,609,1054,855,263,301,2
149,313,195,634,989,863,267,305,2
150,337,177,554,978,822,231,268,2
152,338,173,560,974,784,215,287,2
140,329,158,562,939,817,228,276,2
144,314,168,561,904,848,234,220,2
127,304,156,484,966,869,227,258,2
116,285,142,458,914,920,218,301,2
137,299,157,454,931,918,223,281,2
153,344,213,538,950,935,286,307,2
154,324,209,555,1013,926,307,336,2
161,311,215,602,1002,842,310,335,2
160,360,226,625,1091,751,302,287,2
141,358,219,599,1111,772,294,282,2
114,315,160,517,1068,729,207,244,2
118,338,183,568,1093,826,241,217,2
116,374,178,551,1102,860,237,185,2
125,381,168,543,1016,832,243,197,2
136,362,163,552,969,871,258,199,2
167,438,182,570,1001,858,289,203,2
154,417,152,489,903,808,251,224,2
153,416,171,510,890,843,267,220,2
152,391,186,529,915,864,267,232,2
157,403,198,539,967,862,264,234,2
133,311,185,533,995,864,237,229,2
143,358,202,603,1111,865,269,197,2
145,341,188,595,1134,861,264,220,2
132,298,167,584,1232,811,273,190,2
146,333,165,595,1203,771,279,235,2
149,395,189,630,1179,785,278,257,2
149,376,182,606,1098,746,249,278,2
145,362,191,577,1070,707,233,251,2
165,368,225,632,1020,807,256,274,2
151,333,223,630,1009,798,254,241,2
150,257,227,659,1005,820,308,229,2
146,265,224,626,1051,823,301,206,2
168,370,258,664,1074,824,356,211,2
162,371,251,652,1076,803,359,197,2
159,358,256,641,1110,883,357,189,2
158,355,231,557,1093,819,316,183,2
160,344,238,577,1060,814,313,190,2
138,231,212,564,1127,842,259,194,2
133,238,228,586,1136,797,243,215,2
132,262,207,557,1076,692,243,218,2
136,277,227,606,1106,701,242,237,2
148,317,268,730,1226,737,300,230,2
154,362,278,727,1131,718,306,222,2
146,382,259,672,1070,774,305,200,2
142,376,270,676,1099,809,312,202,2
139,395,268,651,1046,809,310,174,2
159,398,258,578,903,762,267,165,2
161,355,230,563,888,745,262,167,2
155,324,209,525,801,639,228,149,2
151,311,199,509,760,580,213,130,2
155,290,182,498,785,609,215,138,2
122,241,117,418,762,691,219,140,2
106,253,114,392,726,642,213,133,2
115,260,119,389,780,638,215,144,2
117,253,142,460,897,782,251,179,2
105,249,174,555,949,849,273,180,2
91,218,173,520,969,759,247,168,2
94,284,173,528,1045,827,240,169,2
95,276,193,562,1034,864,269,178,2
104,275,205,552,1071,818,292,166,2
104,255,182,435,1000,756,273,176,2
110,245,190,497,1014,830,281,196,2
108,146,198,515,1023,789,286,197,2
106,128,190,578,1156,831,297,195,2
97,146,168,563,1060,739,226,189,2
111,214,174,564,1101,754,237,178,2
113,214,174,551,1122,758,239,172,2
116,209,161,527,1144,804,232,163,2
111,222,153,425,1026,765,181,143,2
105,218,138,374,978,773,176,129,2
88,167,117,358,926,780,170,132,2
97,210,135,327,905,764,166,111,2
102,247,153,401,836,703,182,143,2
109,247,148,405,799,658,181,185,2
109,242,151,425,818,661,188,202,2
115,283,182,464,910,682,186,199,2
102,250,163,437,890,665,199,205,2
92,220,153,414,892,642,183,190,2
95,212,173,435,923,690,213,155,2
99,209,174,417,915,682,213,132,2
161,172,231,486,910,719,327,255,2
168,193,235,508,950,731,327,255,2
176,174,231,500,960,819,346,303,2
178,184,216,475,951,818,334,304,2
175,212,218,475,930,808,331,302,2
121,197,130,414,895,734,218,212,2
123,194,126,460,795,688,208,211,2
111,212,125,452,698,605,171,126,2
104,237,130,460,657,557,175,129,2
106,230,166,521,773,670,210,222,2
101,237,174,506,762,632,195,217,2
96,227,197,557,851,631,211,233,2
95,220,197,538,947,623,212,237,2
103,194,193,552,998,660,211,271,2
137,230,163,538,997,605,227,236,2
135,218,154,546,998,626,233,249,2
129,258,121,473,973,602,213,238,2
130,255,126,510,937,593,218,281,2
127,265,127,503,962,583,212,286,2
91,227,124,520,880,541,168,266,2
85,224,126,507,858,572,159,251,2
90,192,122,508,846,609,160,241,2
92,196,121,499,919,599,150,212,2
83,187,115,467,839,569,148,197,2
123,240,158,508,945,670,159,205,2
124,244,155,499,975,598,161,208,2
148,253,154,468,987,638,187,221,2
145,251,149,443,894,662,201,201,2
154,264,179,497,920,714,219,164,2
121,219,151,437,953,643,232,159,2
127,205,146,438,924,653,233,160,2
102,196,178,544,977,708,261,172,2
104,209,182,527,949,689,248,172,2
112,197,192,550,1061,702,273,187,2
112,190,187,509,954,703,248,167,2
114,205,191,543,943,740,248,191,2
108,196,167,445,817,628,195,237,2
105,182,168,471,818,646,195,240,2
79,162,124,393,617,564,119,221,2
79,161,125,407,653,546,127,226,2
69,159,128,390,726,550,121,208,2
79,154,116,358,745,525,115,125,2
86,151,121,384,855,524,120,134,2
86,148,116,390,861,510,126,148,2
126,219,165,477,907,651,202,187,2
128,271,170,450,838,607,209,184,2
121,278,175,478,887,704,225,181,2
121,290,170,491,854,713,225,217,2
174,334,230,610,937,730,273,270,2
174,314,217,632,953,650,272,265,2
173,267,211,653,956,632,265,272,2
177,259,211,644,910,532,255,304,2
182,254,218,669,955,592,269,294,2
137,206,165,584,945,629,233,250,2
104,171,138,551,951,583,166,242,2
103,185,133,528,972,597,172,251,2
101,180,128,532,1011,632,167,231,2
95,174,120,492,984,588,142,211,2
89,164,119,500,1024,614,143,224,2
96,179,128,483,1001,651,156,212,2
97,148,124,483,978,658,158,207,2
97,184,128,477,942,619,156,195,2
99,188,124,425,933,619,157,192,2
105,185,138,488,875,575,193,191,2
99,180,131,448,818,515,185,187,2
102,198,143,480,923,551,188,192,2
110,170,142,484,968,595,207,217,2
104,153,145,500,982,573,206,214,2
100,162,122,393,938,548,153,191,2
101,154,117,374,979,565,149,191,2
98,142,113,387,970,567,159,200,2
85,136,109,365,918,544,138,158,2
91,139,105,368,867,520,140,158,2
88,122,98,354,826,482,142,159,2
90,116,101,336,739,459,149,159,2
89,127,137,406,740,431,170,126,2
89,128,140,410,725,388,172,131,2
74,153,145,399,700,394,166,121,2
76,150,154,459,865,417,189,155,2
82,176,155,462,893,438,189,161,2
75,159,109,338,804,447,153,163,2
76,161,108,347,848,479,155,168,2
89,147,105,352,920,497,158,185,2
103,162,111,348,896,545,143,175,2
102,163,129,382,907,576,166,181,2
103,164,132,381,876,665,169,192,2
102,168,138,398,866,757,172,192,2
96,179,169,465,872,787,178,181,2
91,171,171,494,841,865,193,181,2
89,155,159,483,922,858,178,180,2
97,162,165,511,1119,792,193,165,2
101,160,162,508,1142,714,189,167,2
95,146,131,458,1143,751,198,173,2
87,157,116,385,1132,698,185,175,2
85,166,125,367,1091,736,194,176,2
86,166,123,331,967,795,199,225,2
80,161,120,317,978,819,200,220,2
84,171,127,316,973,799,183,216,2
86,158,130,366,931,747,176,235,2
89,158,136,413,922,733,166,239,2
80,150,136,423,865,697,134,188,2
93,160,141,416,840,772,148,200,2
90,137,130,382,766,728,148,199,2
123,180,183,478,972,815,249,222,2
120,162,172,448,964,792,249,214,2
118,163,167,428,936,734,246,213,2
124,182,187,539,981,653,264,208,2
127,187,189,556,962,649,269,230,2
93,162,138,448,732,507,188,176,2
89,164,134,471,735,541,190,189,2
94,181,132,468,769,522,193,192,2
80,163,108,394,750,499,152,185,2
74,164,106,402,768,461,159,153,2
76,149,98,392,882,489,153,189,2
77,144,97,350,834,416,144,191,2
75,135,102,387,890,480,152,188,2
69,129,93,334,861,474,148,196,2
71,129,103,352,908,541,147,209,2
75,146,106,336,851,518,135,169,2
111,168,117,380,884,535,148,194,2
114,159,121,360,860,528,145,199,2
116,150,114,373,910,612,169,192,2
115,148,101,345,899,649,161,190,2
109,157,104,395,914,757,176,202,2
81,136,98,388,892,766,169,187,2
73,145,95,417,957,784,168,183,2
82,165,109,399,952,755,143,181,2
88,164,124,463,989,738,191,174,2
100,143,130,451,1023,722,193,206,2
99,140,127,423,1009,721,194,202,2
104,137,124,399,961,765,204,219,2
96,130,116,441,907,763,205,220,2
92,128,102,380,832,735,159,239,2
76,124,88,365,821,644,149,210,2
71,130,100,415,875,695,151,204,2
65,124,106,426,905,709,133,191,2
70,117,118,430,938,822,146,207,2
68,114,126,455,966,831,143,181,2
76,123,134,470,910,839,145,181,2
81,131,126,424,853,786,134,180,2
97,206,137,419,792,777,147,186,2
93,206,125,379,750,622,136,175,2
94,212,115,321,697,592,143,182,2
95,213,121,323,735,573,142,188,2
92,214,118,322,769,570,143,168,2
75,148,104,325,742,483,139,158,2
77,142,105,302,726,538,141,177,2
76,166,107,303,792,543,148,197,2
70,154,86,254,694,610,150,188,2
75,165,136,347,857,614,162,197,2
72,164,138,346,904,636,163,214,2
79,184,140,368,917,582,160,191,2
89,168,146,410,915,693,181,165,2
92,174,147,470,1005,675,175,174,2
100,159,134,480,1024,734,186,171,2
106,160,132,495,1052,790,197,160,2
110,164,140,500,1105,848,208,165,2
118,170,150,525,1098,764,197,206,2
119,198,165,540,1132,820,219,205,2
112,211,158,553,1099,808,209,217,2
113,244,166,549,1118,720,191,236,2
108,246,166,575,1118,704,190,241,2
94,234,165,558,1152,724,176,231,2
97,241,174,531,1086,680,158,221,2
99,262,168,448,984,666,172,215,2
96,254,160,425,909,693,184,194,2
98,242,160,391,864,668,185,203,2
97,253,164,433,789,690,193,193,2
110,248,148,468,823,702,206,220,2
114,245,169,496,868,728,196,219,2
112,224,170,516,869,731,206,216,2
106,220,160,492,886,715,204,213,2
105,218,146,434,948,729,201,218,2
86,196,140,358,981,750,196,201,2
80,149,110,360,949,740,194,230,2
83,137,108,344,1001,698,179,269,2
88,149,126,372,980,716,177,300,2
92,130,129,421,985,684,188,304,2
93,120,120,437,927,586,170,299,2
84,118,110,400,895,570,164,272,2
102,144,103,385,845,616,153,255,2
109,152,90,372,803,566,141,202,2
110,170,77,294,737,525,119,191,2
111,167,88,233,691,563,118,207,2
118,189,95,281,734,550,116,237,2
103,179,114,339,735,541,128,218,2
106,183,130,423,770,638,148,279,2
109,183,145,430,757,650,154,336,2
116,210,180,532,847,724,194,326,2
128,213,211,558,968,740,228,332,2
143,233,205,578,992,838,233,333,2
139,227,206,570,1023,847,227,300,2
135,241,211,569,1063,891,235,228,2
144,247,185,486,1024,892,210,233,2
139,246,162,466,957,884,184,203,2
135,242,179,416,975,799,182,217,2
127,253,168,373,990,759,192,195,2
131,236,171,430,971,711,185,192,2
117,231,164,432,994,599,176,187,2
114,217,160,404,927,627,161,237,2
99,222,145,407,880,630,146,217,2
98,202,148,403,859,632,133,216,2
97,194,120,337,861,620,129,216,2
94,206,128,343,897,703,149,219,2
84,200,112,331,876,642,145,177,2
86,189,105,326,877,639,154,192,2
91,190,101,287,875,578,147,187,2
92,197,134,418,912,631,158,203,2
93,158,140,417,827,559,151,209,2
94,164,154,449,874,655,178,189,2
85,148,157,481,870,623,176,191,2
78,134,158,489,830,672,179,192,2
78,149,143,385,789,677,164,170,2
71,182,155,429,822,694,171,162,2
73,181,152,410,826,668,158,161,2
77,171,144,346,798,701,160,205,2
81,187,141,335,766,679,166,216,2
80,176,136,339,724,607,179,246,2
77,145,109,260,660,558,156,239,2
74,136,93,255,600,466,147,236,2
72,142,98,270,615,386,136,169,2
67,131,114,267,708,492,126,170,2
58,114,108,235,712,535,97,122,2
61,120,104,261,756,608,104,114,2
61,135,110,241,777,631,104,127,2
66,150,124,264,840,709,110,155,2
65,145,111,276,850,629,109,139,2
67,151,119,319,928,636,122,142,2
68,141,123,316,924,586,121,147,2
72,142,120,323,933,574,122,137,2
67,123,98,289,854,526,114,160,2
69,126,94,273,846,572,119,170,2
60,114,90,213,749,547,104,165,2
54,113,85,185,778,545,98,162,2
49,94,82,206,781,603,86,160,2
48,92,89,214,875,583,90,108,2
54,86,87,207,865,523,76,111,2
69,98,87,259,896,592,87,120,2
73,99,95,314,902,650,90,140,2
73,110,93,298,872,618,104,144,2
20,22,30,151,425,62,50,65,0
23,20,33,174,456,62,52,81,0
20,19,33,159,414,58,52,84,0
19,22,31,153,361,57,52,81,0
21,22,33,160,414,74,59,105,0
22,21,29,134,385,74,54,102,0
19,23,34,158,374,81,47,94,0
19,24,35,172,396,85,49,93,0
20,25,36,171,492,92,56,110,0
19,25,39,181,492,125,47,92,0
21,26,38,194,501,125,44,91,0
20,24,35,172,559,125,43,83,0
20,26,35,170,618,197,46,82,0
22,25,36,172,573,201,39,58,0
21,26,38,170,611,184,38,50,0
21,27,47,170,707,190,37,43,0
28,34,60,215,763,204,45,43,0
30,36,60,206,723,258,44,37,0
36,43,71,221,728,255,44,37,0
36,43,73,213,690,253,44,35,0
35,42,69,219,586,249,41,34,0
31,37,59,156,443,237,31,31,0
29,33,58,159,500,129,23,25,0
23,24,46,139,454,123,25,23,0
24,25,48,147,419,116,25,25,0
23,24,46,117,405,108,27,24,0
21,24,49,122,462,135,28,23,0
22,25,56,145,368,106,30,22,0
29,33,74,163,389,108,29,25,0
28,36,72,152,431,108,29,23,0
32,38,73,152,431,114,33,65,0
37,47,70,171,342,84,34,70,0
46,56,72,191,408,109,37,74,0
41,52,54,224,403,117,36,75,0
41,50,52,225,357,176,44,76,0
40,50,52,229,374,190,53,49,0
37,43,54,210,442,202,55,44,0
26,31,46,171,451,217,54,38,0
24,30,44,104,442,222,55,33,0
23,28,41,102,448,193,54,32,0
21,27,42,93,439,246,45,27,0
21,24,38,90,515,279,45,27,0
22,32,49,116,450,267,44,27,0
22,31,48,116,441,266,42,27,0
21,31,46,117,458,269,35,25,0
21,32,45,118,462,218,36,22,0
18,30,47,118,306,160,32,22,0
14,20,31,85,336,139,31,23,0
13,22,29,75,330,126,29,23,0
13,25,44,99,321,130,30,24,0
14,25,44,97,314,121,26,25,0
14,25,42,92,293,118,25,22,0
13,28,43,94,243,125,25,26,0
14,26,45,102,422,150,27,25,0
14,25,37,82,410,127,33,26,0
15,30,40,85,414,161,35,26,0
19,39,44,86,453,174,35,27,0
19,38,44,88,460,179,36,22,0
21,40,46,88,356,172,38,25,0
21,42,41,83,347,207,35,32,0
20,37,39,88,340,179,35,32,0
20,31,35,84,285,168,40,63,0
20,30,35,84,279,217,42,66,0
23,38,32,111,256,212,42,65,0
26,42,56,148,268,185,40,62,0
27,44,58,152,265,198,38,72,0
26,56,59,161,301,198,35,63,0
33,56,60,160,286,134,47,77,0
30,67,59,137,256,124,47,89,0
27,68,33,96,303,127,49,93,0
85,85,33,81,302,98,72,156,0
89,150,31,62,266,98,78,176,0
132,192,31,55,255,93,80,205,0
157,204,32,51,227,96,84,216,0
227,217,35,39,159,86,117,228,0
242,216,37,53,259,103,108,198,0
248,180,40,78,313,119,107,183,0
246,158,52,149,481,176,114,171,0
322,294,56,164,519,190,117,169,0
309,298,56,170,557,200,86,159,0
293,309,53,172,530,197,84,148,0
295,309,51,165,524,193,81,142,0
282,302,42,125,468,180,67,108,0
175,161,40,120,492,206,73,84,0
116,132,38,113,450,196,70,77,0
99,96,37,104,438,196,67,75,0
84,90,35,98,415,189,68,91,0
82,143,30,72,308,153,72,121,0
73,136,23,38,187,87,54,122,0
64,136,21,29,144,70,57,121,0
63,136,19,25,113,48,56,119,0
40,131,18,22,82,41,52,105,0
29,52,18,21,61,33,35,66,0
27,44,15,19,44,23,29,52,0
35,35,16,19,37,17,20,40,0
41,39,16,19,33,15,24,58,0
41,40,15,17,29,15,23,54,0
39,43,14,17,29,16,20,54,0
43,63,15,16,20,16,19,54,0
44,96,16,16,19,16,21,54,0
43,94,17,14,18,16,14,26,0
45,95,17,15,16,14,16,25,0
45,93,16,14,14,13,16,21,0
43,80,17,15,14,14,16,19,0
34,35,14,14,12,13,14,17,0
26,31,14,16,11,13,15,16,0
23,26,14,15,12,13,20,38,0
35,25,15,16,15,14,28,63,0
54,25,14,17,16,13,30,65,0
58,48,13,16,17,14,31,67,0
59,49,12,15,16,14,31,68,0
66,88,14,17,16,14,29,59,0
63,93,13,16,15,13,22,34,0
61,96,13,14,15,14,22,28,0
64,92,14,15,14,13,21,24,0
66,97,15,15,14,14,20,21,0
59,65,15,15,13,12,17,20,0
62,61,16,15,11,15,19,15,0
48,57,15,15,11,14,16,17,0
40,50,15,17,12,14,17,17,0
37,38,15,17,12,16,18,23,0
36,38,13,17,20,16,17,22,0
40,48,13,19,21,15,16,22,0
70,90,14,19,21,15,23,22,0
73,95,14,18,21,15,23,21,0
73,95,13,17,27,13,22,15,0
78,96,14,22,40,15,24,14,0
81,138,15,23,41,18,24,15,0
60,119,16,26,45,24,18,17,0
59,120,19,30,54,44,31,19,0
59,120,28,41,58,58,32,22,0
56,139,31,51,67,87,50,27,0
64,132,33,59,70,88,54,48,0
61,132,33,60,80,89,57,55,0
61,133,38,59,84,83,54,62,0
61,137,39,60,96,84,59,62,0
60,121,39,58,106,92,49,62,0
46,100,37,53,116,97,66,93,0
47,112,37,52,110,99,68,111,0
46,108,30,52,105,101,70,111,0
47,104,21,45,92,94,66,112,0
46,102,17,33,64,60,63,112,0
47,76,21,27,41,48,40,78,0
43,48,21,24,37,47,34,45,0
42,42,21,23,31,43,28,36,0
38,34,23,22,29,42,26,33,0
38,31,22,23,27,41,26,28,0
49,24,22,26,68,46,27,30,0
51,23,23,26,97,39,23,24,0
52,20,26,33,102,34,23,22,0
52,20,26,34,104,32,23,22,0
52,18,27,34,104,31,22,21,0
28,18,24,30,85,31,28,19,0
23,14,22,30,50,30,29,18,0
20,15,38,46,39,30,27,18,0
21,16,38,54,40,31,26,19,0
17,16,37,55,36,31,25,19,0
16,15,38,55,32,25,17,16,0
16,17,38,55,28,29,15,17,0
18,21,32,58,29,34,15,18,0
15,23,37,70,27,52,29,17,0
16,25,45,91,27,52,33,17,0
15,26,45,92,27,52,32,16,0
16,26,46,93,33,51,32,15,0
14,25,61,136,33,48,32,13,0
16,27,66,136,90,28,19,13,0
19,32,76,150,102,27,14,16,0
35,40,79,160,253,36,17,18,0
45,51,91,200,436,65,23,24,0
47,51,88,209,464,68,26,25,0
49,55,90,223,499,70,26,25,0
50,54,82,218,503,72,27,23,0
46,54,100,269,545,77,27,25,0
37,46,90,248,425,55,21,21,0
36,46,83,218,407,51,17,20,0
32,39,77,204,360,47,16,20,0
29,38,73,197,357,44,15,20,0
33,36,63,128,184,25,18,21,0
32,36,65,124,157,22,18,19,0
31,34,62,120,121,21,19,20,0
31,32,58,109,99,21,18,20,0
30,30,57,99,80,25,19,20,0
17,23,34,76,191,63,16,17,0
21,27,34,75,237,77,16,19,0
24,30,41,94,316,110,34,24,0
26,33,45,100,429,166,40,27,0
27,35,47,108,511,219,45,30,0
26,34,47,122,541,255,46,28,0
43,61,72,165,548,277,47,29,0
41,61,69,156,513,276,37,24,0
48,66,80,181,540,392,59,35,0
49,68,81,182,552,402,73,38,0
63,75,92,195,545,433,87,51,0
57,61,77,178,537,428,89,52,0
58,63,79,180,543,435,89,53,0
55,60,76,185,483,369,80,50,0
57,70,86,219,517,389,75,49,0
66,85,86,208,485,328,61,43,0
66,86,85,192,494,320,59,43,0
69,87,92,208,549,305,59,42,0
67,84,98,277,614,284,62,40,0
70,83,98,272,520,227,52,39,0
52,64,91,276,525,223,48,34,0
50,55,95,322,532,247,53,35,0
55,65,139,446,603,359,100,59,0
59,77,148,406,597,325,100,63,0
61,136,144,405,596,319,100,64,0
59,139,143,401,642,321,102,64,0
60,140,143,405,667,331,103,63,0
52,139,106,316,649,253,73,49,0
46,133,84,319,703,273,68,41,0
36,68,87,323,745,282,68,40,0
36,61,95,352,714,285,67,38,0
31,59,90,307,689,248,65,38,0
31,56,111,368,609,204,47,27,0
34,54,113,363,469,218,51,32,0
35,49,109,346,435,275,58,52,0
33,45,107,343,422,273,57,54,0
35,51,113,355,393,284,55,56,0
32,48,82,245,439,281,57,57,0
35,63,75,241,402,246,53,88,0
69,113,72,239,371,160,88,156,0
70,117,66,193,403,199,96,174,0
71,117,50,164,421,221,104,187,0
75,122,50,143,349,250,107,188,0
92,121,55,165,345,247,107,180,0
103,103,55,171,376,260,106,183,0
106,101,56,180,368,267,104,182,0
108,100,62,211,451,250,98,174,0
109,94,86,266,478,227,97,174,0
98,107,87,247,509,245,98,171,0
83,103,90,245,513,238,65,147,0
89,111,101,281,528,221,73,149,0
101,143,109,270,486,214,71,154,0
105,157,86,295,466,210,68,157,0
142,161,88,298,454,191,71,163,0
187,208,85,302,416,174,81,230,0
225,228,89,266,339,147,70,234,0
231,221,89,265,317,153,70,235,0
232,217,95,168,313,145,74,241,0
213,210,91,179,274,139,69,236,0
168,157,92,168,254,125,52,167,0
115,125,77,167,242,129,117,148,0
107,109,74,169,168,153,133,148,0
103,103,86,173,146,191,152,136,0
97,92,94,266,157,237,183,134,0
95,83,94,270,149,264,211,104,0
92,70,91,280,150,267,206,130,0
67,56,98,327,168,324,200,124,0
61,43,83,373,179,392,242,121,0
60,38,75,334,272,415,227,123,0
61,36,79,344,372,414,209,121,0
58,43,82,339,380,418,189,78,0
57,39,64,291,376,364,189,65,0
58,40,58,225,381,278,114,68,0
56,43,60,173,398,246,101,65,0
52,44,64,172,335,249,87,51,0
41,36,65,173,342,240,100,48,0
41,37,65,166,367,268,135,91,0
36,33,64,155,373,291,151,105,0
48,55,90,174,326,311,155,125,0
45,61,95,167,354,291,159,125,0
46,63,97,158,343,283,148,127,0
46,63,96,151,311,253,119,107,0
50,64,97,150,288,295,113,120,0
37,47,70,127,265,324,122,100,0
37,42,56,103,216,358,124,102,0
36,38,43,88,232,364,123,100,0
37,42,46,91,256,373,118,94,0
37,42,46,94,315,354,97,89,0
39,43,49,102,333,313,74,106,0
36,38,47,143,388,322,93,111,0
38,40,55,158,415,369,99,117,0
38,38,57,190,421,368,98,118,0
41,40,56,190,386,338,94,92,0
37,38,54,212,351,317,93,69,0
38,39,61,209,286,342,71,54,0
34,37,57,210,239,316,72,35,0
41,48,62,187,213,345,75,33,0
38,46,63,187,201,356,81,29,0
41,46,64,198,213,432,99,27,0
43,50,70,229,275,430,126,29,0
44,48,71,234,269,440,121,30,0
36,37,63,229,280,431,128,28,0
36,45,65,232,303,423,130,31,0
34,45,72,212,298,334,117,32,0
33,42,60,184,229,269,80,28,0
39,44,70,204,276,242,112,33,0
39,46,72,209,277,247,113,34,0
33,41,68,204,261,263,116,33,0
38,40,59,193,258,269,117,32,0
39,43,65,186,250,260,118,32,0
32,41,52,160,207,269,88,28,0
35,40,51,157,258,275,93,28,0
33,37,53,163,271,252,86,25,0
31,38,51,160,327,246,86,27,0
29,31,37,127,340,246,82,27,0
28,31,35,101,340,244,84,43,0
27,34,39,133,414,208,101,45,0
31,34,41,131,415,253,107,46,0
28,32,43,127,379,254,107,44,0
28,33,43,134,403,281,116,44,0
28,33,47,161,415,278,139,33,0
34,37,46,156,353,266,120,29,0
31,37,43,154,354,291,122,28,0
30,35,41,159,360,375,153,30,0
30,34,42,159,375,370,164,31,0
34,37,40,145,446,352,146,27,0
26,29,37,128,403,354,141,27,0
27,29,37,132,418,305,144,26,0
28,30,35,126,428,202,119,26,0
27,29,41,147,434,220,100,22,0
21,24,44,156,360,234,96,22,0
23,26,43,150,356,232,95,22,0
26,27,48,146,340,221,94,24,0
26,28,48,145,310,204,97,22,0
26,28,45,137,239,154,96,23,0
27,28,42,127,240,104,95,22,0
26,31,53,142,243,88,98,22,0
21,31,49,144,232,84,111,22,0
19,31,58,172,251,125,105,22,0
24,33,59,242,409,300,126,35,0
25,35,68,271,434,321,130,34,0
23,31,60,271,522,353,129,35,0
27,30,67,286,541,356,110,36,0
29,30,60,274,553,456,108,37,0
29,30,55,208,480,391,89,65,0
30,25,41,163,468,392,89,101,0
32,25,42,151,369,380,91,109,0
32,23,31,136,344,403,89,109,0
32,28,45,137,344,278,82,111,0
30,27,46,134,301,250,68,96,0
26,28,47,130,251,237,62,58,0
26,26,43,127,244,222,68,41,0
28,28,43,108,224,170,70,42,0
29,23,32,97,173,159,78,35,0
29,24,33,102,159,145,78,25,0
30,25,30,97,218,113,76,29,0
34,25,31,115,221,83,65,28,0
31,24,31,121,275,74,54,34,0
30,23,28,145,299,80,46,58,0
29,22,25,142,337,90,43,64,0
30,21,25,147,306,89,40,63,0
39,42,24,142,298,89,37,64,0
41,44,22,141,260,86,36,61,0
41,45,20,113,336,85,35,41,0
42,46,21,113,332,129,33,32,0
40,48,26,137,383,167,53,83,0
28,33,28,155,424,181,61,129,0
25,30,32,174,417,189,63,132,0
25,28,34,182,348,200,62,136,0
24,27,35,188,364,277,63,139,0
24,24,34,171,347,309,51,118,0
21,22,33,149,303,305,41,68,0
22,20,27,115,297,305,39,62,0
21,20,25,99,280,296,37,51,0
22,20,24,88,276,234,38,42,0
24,18,25,129,304,226,39,99,0
27,21,30,149,302,231,61,141,0
31,20,32,168,306,229,63,151,0
31,20,32,176,310,230,65,155,0
31,19,32,175,261,191,61,157,0
30,22,36,175,190,150,60,128,0
36,25,35,167,176,138,46,200,0
33,28,37,160,193,135,47,198,0
36,32,37,163,189,132,49,207,0
36,31,38,189,239,132,50,209,0
37,31,33,161,256,123,51,211,0
29,29,32,159,264,119,47,104,0
27,28,31,160,261,117,51,100,0
22,26,33,155,275,120,49,84,0
21,31,32,125,259,122,53,100,0
23,30,32,127,262,122,53,100,0
21,29,30,132,258,127,50,97,0
21,28,26,119,247,128,44,92,0
21,25,24,112,239,125,53,101,0
21,22,21,101,199,124,52,79,0
17,22,19,95,217,82,54,77,0
19,21,20,66,215,79,52,116,0
19,22,19,59,213,72,52,120,0
19,23,19,47,206,69,44,110,0
19,22,21,50,211,81,46,117,0
19,19,19,39,124,80,41,113,0
17,19,18,41,136,92,41,73,0
17,20,18,50,170,96,65,76,0
16,18,18,50,168,98,64,69,0
16,17,19,49,179,129,61,56,0
16,18,19,50,177,130,63,58,0
17,17,20,46,160,120,64,65,0
17,18,20,34,114,128,41,64,0
24,19,21,42,158,147,46,147,0
23,19,19,38,132,113,50,154,0
23,18,20,36,135,117,47,155,0
23,22,21,39,146,123,45,154,0
23,21,21,43,160,118,45,152,0
17,21,20,36,114,102,38,79,0
18,22,19,36,112,102,30,71,0
18,26,18,40,119,97,41,80,0
19,24,19,48,115,89,43,75,0
19,24,19,54,100,85,42,71,0
19,23,19,54,101,98,55,79,0
23,23,20,56,139,122,58,102,0
22,17,18,57,150,128,52,97,0
21,18,16,50,147,143,52,97,0
23,18,17,53,159,147,79,117,0
22,18,17,56,166,134,76,110,0
19,19,18,58,132,111,73,93,0
19,19,20,89,107,149,73,88,0
18,18,20,100,182,190,76,88,0
18,18,18,97,177,192,52,77,0
20,20,20,95,185,194,43,76,0
22,22,26,115,258,275,55,71,0
25,25,37,132,371,355,65,71,0
26,27,40,139,444,354,65,71,0
25,29,41,139,456,363,61,47,0
25,28,40,141,458,369,66,88,0
23,27,41,136,432,323,58,88,0
21,26,35,105,409,271,49,87,0
23,24,34,101,317,290,48,86,0
23,23,40,104,312,364,53,87,0
24,24,41,112,340,391,57,46,0
23,21,37,105,339,409,71,41,0
21,20,35,98,253,374,70,40,0
19,20,33,90,242,349,69,40,0
18,20,29,110,239,261,65,39,0
16,22,31,106,214,237,57,35,0
20,22,31,104,242,222,42,52,0
21,24,30,107,243,215,60,51,0
21,25,31,114,300,240,66,51,0
25,29,54,124,306,235,67,50,0
29,33,72,156,327,351,74,52,0
27,36,76,160,324,375,75,37,0
28,36,78,160,350,388,68,36,0
28,37,80,162,296,377,66,34,0
24,33,66,140,291,381,65,31,0
22,28,44,104,270,263,59,27,0
20,28,39,97,256,216,57,23,0
25,30,41,109,280,214,72,31,0
26,29,38,95,276,187,79,77,0
25,30,34,91,276,212,81,79,0
24,30,40,113,258,199,79,80,0
24,30,38,112,254,185,84,80,0
19,24,31,99,262,187,75,80,0
17,23,30,98,290,234,88,41,0
18,26,33,101,388,412,89,38,0
17,24,27,73,396,431,89,36,0
21,25,31,94,415,444,82,34,0
21,25,32,106,397,452,80,31,0
21,25,32,105,391,455,81,25,0
21,27,29,106,323,291,81,27,0
21,27,27,102,310,288,83,27,0
16,25,22,78,311,281,96,27,0
16,25,26,77,321,253,92,26,0
19,29,28,78,352,229,73,30,0
19,24,28,96,345,226,75,26,0
22,26,29,101,343,202,75,35,0
22,28,29,105,317,261,83,35,0
22,29,25,103,288,286,94,36,0
25,26,25,122,334,330,101,36,0
24,27,26,109,302,332,98,36,0
21,24,24,106,320,330,97,28,0
22,25,24,106,346,308,97,28,0
24,24,27,114,392,293,84,30,0
22,26,27,100,332,222,78,28,0
694,195,350,947,859,682,853,279,1
524,194,319,957,806,615,822,276,1
530,180,376,1024,854,626,807,261,1
504,186,361,964,895,661,887,270,1
440,190,434,966,955,701,874,299,1
399,166,424,956,957,717,885,278,1
394,149,414,931,963,727,1017,387,1
368,149,364,796,926,732,1146,437,1
372,141,375,909,892,803,1091,433,1
446,124,285,896,881,757,1066,415,1
417,125,267,903,896,702,1060,411,1
431,132,275,896,895,718,907,297,1
412,137,277,910,962,667,853,227,1
427,144,291,819,1017,615,882,201,1
369,147,282,791,1002,747,918,215,1
446,162,319,843,984,809,870,217,1
442,169,336,900,1063,814,905,236,1
455,182,332,899,1063,817,792,208,1
519,175,290,907,1024,821,881,258,1
489,174,295,862,988,757,827,254,1
418,165,331,887,1038,762,830,249,1
403,173,363,908,975,796,821,241,1
430,177,370,945,870,820,886,254,1
376,181,366,889,909,805,788,231,1
386,183,382,959,993,763,909,229,1
404,187,311,865,951,762,1004,235,1
441,193,272,835,960,688,1047,280,1
455,214,268,821,1012,629,1043,316,1
419,227,349,867,945,576,1073,307,1
409,226,374,908,910,631,1021,320,1
454,223,389,878,1020,660,1021,405,1
469,216,388,816,986,709,991,392,1
438,185,408,806,1092,710,945,368,1
425,173,364,801,1125,786,959,393,1
444,171,382,793,1057,746,986,397,1
477,222,379,808,947,761,953,371,1
458,228,369,829,1034,776,972,349,1
492,269,473,959,850,802,964,339,1
500,267,459,979,816,779,926,309,1
538,312,412,869,820,808,939,290,1
505,274,440,965,840,778,912,219,1
509,264,444,988,753,781,871,210,1
509,235,324,860,805,820,927,214,1
510,229,307,765,819,769,868,207,1
457,167,330,799,800,775,788,228,1
405,165,325,726,798,807,770,226,1
358,178,374,858,821,753,820,227,1
287,150,353,862,798,676,793,213,1
382,152,372,920,772,731,879,224,1
383,150,353,896,869,716,905,207,1
372,140,305,834,878,653,901,188,1
378,147,359,791,901,675,850,193,1
398,152,378,793,862,671,876,197,1
339,174,440,784,893,668,895,187,1
355,172,448,835,920,670,856,185,1
368,177,460,892,948,684,845,225,1
387,147,382,785,875,637,1001,237,1
382,151,376,724,981,668,969,244,1
365,126,290,732,960,660,886,244,1
352,127,278,716,891,680,1023,289,1
371,117,265,713,794,647,1093,312,1
352,132,272,725,832,711,1003,330,1
330,129,256,742,684,699,999,324,1
334,128,257,707,620,638,1049,363,1
364,133,268,720,613,622,934,315,1
359,137,264,653,590,666,863,273,1
371,125,307,692,617,678,891,243,1
416,124,334,753,702,713,974,257,1
418,118,320,768,729,779,1010,194,1
390,113,311,746,794,794,1038,228,1
390,174,382,848,883,796,1177,261,1
386,178,345,838,868,782,1151,287,1
390,172,320,892,824,742,1120,291,1
377,174,334,876,839,792,1087,293,1
363,185,341,859,835,786,1040,289,1
498,155,281,771,819,777,1002,364,1
488,161,281,786,813,742,985,339,1
467,182,322,725,877,730,954,329,1
468,190,380,860,912,630,987,347,1
479,183,373,862,861,654,995,341,1
338,169,407,911,935,631,900,243,1
362,159,397,908,970,689,939,262,1
377,146,365,926,939,765,973,276,1
417,135,296,805,942,823,948,289,1
423,144,330,839,941,834,991,362,1
451,185,325,866,870,887,986,347,1
529,208,338,883,852,876,997,365,1
521,211,329,854,844,836,956,351,1
536,233,331,922,810,880,1047,365,1
602,249,370,935,800,852,1145,331,1
577,219,346,901,780,840,1111,333,1
532,216,346,987,763,921,1125,323,1
542,209,374,991,757,992,1129,333,1
553,204,393,945,743,1003,1062,358,1
527,197,348,936,801,1049,960,383,1
561,211,329,960,729,1030,1032,465,1
555,213,350,877,668,1027,1068,545,1
539,220,334,988,686,1072,1105,549,1
485,208,336,997,687,1007,1092,510,1
449,199,306,973,606,991,1084,474,1
410,197,339,964,669,1049,1066,403,1
481,188,354,994,733,993,1012,331,1
504,187,367,924,718,911,1080,354,1
511,193,354,868,733,1039,1099,371,1
535,219,408,891,707,1063,1126,432,1
536,245,462,940,720,1044,1074,449,1
602,289,465,968,713,1105,1144,521,1
607,300,465,985,708,1117,1044,509,1
583,299,466,1025,745,1017,1060,509,1
551,274,443,1023,771,1085,1060,479,1
583,241,369,948,812,1029,1098,467,1
434,180,314,875,822,991,1155,338,1
391,155,274,762,872,1006,1170,359,1
466,165,271,769,810,966,1123,336,1
499,183,247,780,832,935,1061,319,1
486,185,240,794,782,1016,1113,338,1
624,209,324,825,774,1161,1041,524,1
633,218,331,841,718,1129,989,520,1
587,200,351,845,746,1158,936,521,1
560,186,343,840,704,1082,946,514,1
624,208,328,764,667,1059,994,516,1
487,197,299,707,619,893,842,366,1
472,201,346,735,621,1022,1013,390,1
459,204,316,673,632,1021,1048,389,1
507,197,313,669,650,1021,1113,406,1
407,160,320,717,732,979,984,376,1
398,146,266,653,754,990,980,330,1
499,162,261,653,783,976,858,285,1
504,162,311,783,814,948,906,296,1
449,166,316,740,852,937,826,249,1
516,206,352,733,809,998,955,283,1
551,199,372,793,792,1021,957,303,1
475,169,364,771,732,941,928,304,1
486,172,325,629,692,966,921,293,1
584,189,390,699,759,1035,981,383,1
557,195,421,851,777,997,887,390,1
528,193,420,781,756,899,873,379,1
564,217,443,841,842,908,866,441,1
584,210,447,918,843,972,824,472,1
500,205,387,906,738,891,787,413,1
453,166,307,750,704,943,738,398,1
439,164,297,829,774,958,884,405,1
433,156,303,790,703,908,939,359,1
422,189,308,747,797,930,1049,372,1
450,193,333,800,882,1010,1041,426,1
467,197,336,793,921,959,1124,421,1
512,226,360,810,887,984,1070,433,1
486,209,289,791,862,1091,1028,410,1
478,180,302,861,781,1033,931,372,1
448,176,292,774,710,1013,967,297,1
430,170,314,846,639,996,875,281,1
383,153,298,902,633,961,995,320,1
363,161,304,925,712,916,1121,350,1
390,177,304,905,773,940,1124,393,1
466,187,297,961,767,1026,1090,474,1
612,202,290,947,833,1063,1116,584,1
653,203,271,862,878,1213,1079,619,1
680,210,259,803,885,1218,967,621,1
727,233,253,800,914,1291,1042,673,1
675,225,256,764,940,1235,1081,709,1
628,255,270,761,907,1321,1160,701,1
581,247,305,766,846,1275,1156,652,1
576,253,354,851,810,1235,1184,669,1
482,234,398,920,677,1173,1170,651,1
538,243,430,958,622,1204,1100,602,1
450,199,421,940,601,1292,1075,576,1
490,204,412,916,713,1295,1033,608,1
516,201,405,952,741,1362,1096,618,1
531,202,377,901,764,1358,1025,551,1
481,191,350,850,866,1297,1038,494,1
517,191,365,867,910,1170,971,456,1
546,236,390,978,862,1177,991,538,1
489,225,365,897,838,1242,911,498,1
477,218,345,844,866,1235,923,506,1
467,223,401,860,769,1285,981,519,1
566,226,384,937,705,1240,1026,521,1
501,184,346,889,711,1266,1000,436,1
518,183,364,892,765,1213,996,433,1
507,184,378,921,689,1242,1039,422,1
536,187,348,938,691,1277,1071,426,1
370,183,357,875,828,1271,1052,383,1
411,187,379,834,791,1147,1042,350,1
390,194,368,875,748,1019,961,344,1
398,197,338,816,819,916,858,334,1
348,188,282,755,818,751,717,311,1
358,193,271,716,680,769,783,312,1
280,178,287,821,665,810,794,242,1
265,171,309,861,598,822,821,209,1
259,164,300,846,485,782,800,206,1
244,157,294,835,495,778,764,223,1
206,158,305,868,492,701,577,207,1
261,174,273,774,547,758,452,260,1
271,174,232,644,554,806,446,262,1
295,179,240,736,624,848,525,254,1
290,175,320,802,591,861,557,223,1
281,177,317,769,679,844,560,223,1
239,185,290,689,781,744,491,175,1
264,212,417,814,829,690,461,229,1
234,211,438,762,837,756,376,248,1
231,212,421,849,855,769,423,261,1
241,223,508,942,822,786,421,261,1
228,204,519,962,769,791,421,250,1
212,250,454,881,748,752,474,259,1
206,255,445,904,774,777,500,257,1
208,266,462,845,839,815,463,245,1
206,251,355,722,846,844,501,262,1
210,258,390,772,828,868,497,259,1
186,195,369,768,926,896,441,215,1
188,191,384,798,890,803,398,213,1
197,193,332,762,867,760,390,241,1
226,228,365,818,851,784,412,298,1
236,250,422,890,941,757,405,306,1
240,242,457,992,878,743,433,304,1
301,244,466,984,853,762,463,335,1
340,244,499,1020,882,764,483,343,1
331,216,506,1032,925,732,447,317,1
323,195,453,951,877,750,454,315,1
336,213,408,899,846,783,470,307,1
293,226,401,884,923,746,471,300,1
263,223,403,853,875,770,462,328,1
240,218,379,832,917,719,446,297,1
288,209,353,832,863,666,440,302,1
308,216,407,805,962,636,463,301,1
332,230,442,869,905,716,438,269,1
356,245,450,946,908,685,401,232,1
519,316,476,987,859,735,406,270,1
525,323,522,1034,836,841,416,275,1
547,321,499,1059,770,889,367,271,1
547,327,445,981,948,829,394,295,1
566,331,398,922,1083,846,397,288,1
497,320,369,896,1108,877,432,250,1
482,312,343,899,1101,811,494,235,1
440,309,359,996,1127,765,481,242,1
450,307,412,1052,1073,856,512,214,1
456,304,430,1050,931,821,579,250,1
462,294,426,1065,937,865,608,297,1
451,308,436,1054,993,885,555,295,1
457,295,391,955,953,921,580,328,1
464,263,368,922,895,868,625,358,1
500,310,394,948,919,921,647,321,1
467,318,388,979,921,870,641,291,1
467,307,367,1046,941,845,652,302,1
467,327,396,1042,980,810,702,282,1
464,330,375,1041,925,829,724,243,1
434,262,359,1028,923,769,723,260,1
453,208,359,947,939,765,708,289,1
459,223,319,841,886,781,733,318,1
501,193,293,798,788,773,686,293,1
489,191,315,810,876,776,675,327,1
623,207,276,748,895,843,664,376,1
594,190,280,807,872,856,773,355,1
598,170,317,813,886,902,955,482,1
612,183,355,887,947,1003,1053,536,1
701,225,382,860,885,1059,1112,624,1
600,259,427,923,864,1172,1226,705,1
637,274,464,873,842,1138,1362,748,1
667,276,459,900,851,1186,1282,675,1
698,293,440,855,859,1197,1289,717,1
616,257,418,825,857,1224,1261,648,1
576,224,379,798,800,1177,1239,565,1
536,224,334,838,772,1247,1089,529,1
526,271,376,796,737,1236,1104,588,1
532,274,388,773,682,1232,1049,582,1
529,295,485,844,694,1154,981,560,1
516,296,489,808,697,1073,938,526,1
535,287,478,753,636,1113,888,504,1
571,252,475,755,676,1057,970,517,1
529,222,452,750,701,985,1011,464,1
573,208,330,697,743,1083,1139,511,1
675,226,360,730,765,1142,1144,605,1
703,255,428,764,769,1065,1202,643,1
684,297,509,966,747,1106,1153,665,1
658,310,522,979,712,1106,1141,682,1
718,309,520,979,615,1054,1070,651,1
641,302,492,944,584,1028,1051,595,1
580,274,431,922,627,1071,1024,576,1
565,223,372,823,623,1093,1016,490,1
609,215,368,822,591,1071,964,429,1
473,208,373,823,654,1020,930,453,1
519,211,447,951,749,1107,1043,513,1
581,209,446,962,741,1049,997,508,1
635,244,395,878,700,1043,968,556,1
616,248,393,912,700,1087,1045,576,1
687,283,413,982,705,1189,1078,654,1
657,276,356,905,606,1060,1021,609,1
669,300,423,1001,630,1119,1064,758,1
719,276,408,1008,651,1174,1213,733,1
759,285,428,977,636,1136,1232,750,1
763,260,401,925,638,1178,1300,756,1
834,281,404,959,722,1257,1235,817,1
832,274,345,909,672,1291,1300,765,1
736,263,345,955,657,1205,1165,748,1
757,298,341,986,777,1325,1112,825,1
763,312,398,1037,793,1226,1104,802,1
668,315,422,1029,801,1178,1113,733,1
606,311,480,1008,841,1153,1030,659,1
602,303,471,981,832,1183,1048,654,1
561,269,512,947,767,1120,1082,573,1
450,239,477,907,733,1146,1098,526,1
499,197,457,872,651,1082,1076,512,1
584,188,419,890,598,977,1069,517,1
587,192,447,965,681,879,992,497,1
626,171,411,1048,683,784,885,434,1
638,200,408,1058,695,926,791,439,1
598,191,376,1030,678,1002,790,432,1
558,192,355,989,655,1054,758,376,1
680,222,346,883,594,1156,817,433,1
615,228,316,845,555,1205,945,425,1
638,226,319,813,481,1162,956,400,1
696,238,341,889,474,1149,965,415,1
731,242,353,865,494,1154,992,487,1
658,259,361,946,512,1094,1051,469,1
665,258,348,858,524,1110,990,473,1
670,241,368,933,568,1022,994,481,1
755,248,371,898,579,1097,980,512,1
706,267,405,958,601,1094,976,458,1
728,270,465,1004,607,1083,922,500,1
804,269,480,1067,621,1066,929,574,1
828,276,499,1024,660,1108,950,683,1
700,255,548,1067,684,1166,1021,694,1
727,260,564,1066,700,1200,985,696,1
736,237,571,1057,673,1184,1058,694,1
638,234,580,1038,633,1204,1075,635,1
675,273,586,1016,679,1263,1005,621,1
778,321,574,947,730,1264,1155,768,1
753,318,534,961,779,1305,1249,832,1
729,315,472,927,791,1323,1284,847,1
728,310,513,1011,798,1288,1290,866,1
802,266,457,982,685,1232,1307,799,1
764,216,405,936,567,1085,1177,659,1
806,178,407,896,478,1022,1158,592,1
791,170,408,828,451,1074,1058,551,1
772,169,317,701,418,1007,1034,513,1
677,174,335,744,421,912,1012,479,1
638,192,405,874,447,992,1010,422,1
695,222,446,918,386,1019,945,483,1
712,213,411,893,352,993,1025,500,1
723,226,454,926,376,1078,1089,487,1
763,264,515,956,452,1179,1215,589,1
745,261,466,870,494,1179,1232,639,1
642,240,443,906,552,1148,1224,616,1
751,251,467,933,571,1193,1198,663,1
813,310,508,951,627,1275,1199,773,1
769,301,474,994,621,1214,1085,742,1
820,332,540,1073,691,1218,1043,751,1
832,333,529,1062,663,1229,1162,738,1
725,343,537,1081,683,1261,1146,718,1
647,289,485,1061,670,1232,1138,623,1
679,304,514,1028,651,1271,1120,609,1
700,332,489,987,607,1242,1106,567,1
716,328,475,937,605,1216,957,576,1
716,314,464,916,609,1111,854,493,1
729,305,451,900,568,1038,871,539,1
793,308,437,959,566,1079,991,518,1
740,255,462,1005,520,1070,1099,520,1
707,259,483,987,558,1037,1107,478,1
720,252,485,1011,535,1074,1244,508,1
703,255,487,995,524,1056,1160,476,1
506,205,453,936,511,1058,1116,450,1
476,170,390,827,507,1078,969,387,1
485,152,354,851,439,1070,1021,392,1
477,167,327,781,425,1043,990,411,1
546,178,350,850,455,1085,1084,387,1
542,171,321,774,436,1017,1138,451,1
573,168,290,848,392,933,1191,479,1
597,168,280,810,397,958,1190,494,1
570,163,258,770,367,945,1179,443,1
568,188,239,705,336,904,1142,420,1
604,200,270,762,373,832,1039,398,1
594,209,287,785,415,880,1087,384,1
594,210,305,818,421,882,1086,366,1
578,212,334,859,451,883,1015,384,1
495,174,325,891,457,834,1003,415,1
441,169,298,886,441,840,1064,430,1
396,160,311,849,392,777,1008,436,1
340,163,313,818,401,737,1098,432,1
367,150,289,784,353,734,1063,428,1
360,145,284,763,334,846,1021,392,1
403,145,286,719,336,834,976,319,1
466,132,241,648,344,843,1002,292,1
510,125,210,677,365,880,850,294,1
497,116,213,755,382,858,890,283,1
537,117,191,688,381,761,892,260,1
522,111,201,689,357,764,854,261,1
484,128,270,724,361,798,825,285,1
486,139,291,713,319,799,867,303,1
531,150,283,612,344,858,897,319,1
567,165,276,632,396,873,900,334,1
565,161,271,701,433,911,907,340,1
646,157,212,669,462,945,902,373,1
637,158,206,669,479,959,913,385,1
599,147,202,669,459,969,915,378,1
546,136,249,741,423,944,1051,389,1
567,148,249,636,379,895,1013,386,1
499,145,249,618,344,888,1013,365,1
466,136,255,588,317,888,943,317,1
528,141,275,639,311,834,970,342,1
539,147,248,607,315,839,804,312,1
530,133,235,602,346,889,860,297,1
489,125,220,623,324,830,808,265,1
540,128,203,602,316,799,838,263,1
494,122,189,603,310,758,829,232,1
499,111,182,588,284,785,941,257,1
495,118,207,617,290,751,973,267,1
494,123,219,594,316,774,959,259,1
484,113,239,642,320,707,923,266,1
488,124,244,608,344,703,807,272,1
504,131,246,581,379,735,687,314,1
524,120,242,595,342,809,594,351,1
538,116,244,628,323,744,623,359,1
533,120,211,565,353,780,742,369,1
525,107,214,655,337,816,809,352,1
549,153,277,650,350,751,815,374,1
575,183,280,689,357,654,825,407,1
649,204,297,688,385,803,892,507,1
734,210,307,682,372,864,808,540,1
711,220,365,731,365,914,836,551,1
715,211,333,749,368,943,844,551,1
732,198,322,746,407,986,987,681,1
758,220,340,798,418,997,993,682,1
669,214,359,853,403,994,1013,680,1
688,218,302,766,502,1000,1103,737,1
672,193,309,823,477,1029,1149,738,1
644,187,321,805,487,976,1123,617,1
534,147,329,891,511,1085,1205,602,1
562,163,314,892,534,1088,1259,587,1
553,166,397,959,537,1140,1221,562,1
532,202,414,1028,557,1142,1314,622,1
532,219,452,1074,561,1225,1300,607,1
536,229,451,1007,517,1112,1169,551,1
554,232,453,977,519,1094,1152,556,1
664,261,394,947,560,1100,1158,659,1
750,271,408,870,615,1181,1016,626,1
756,274,409,849,609,1107,901,624,1
761,262,395,822,626,1061,978,617,1
747,258,436,862,631,1127,956,650,1
705,228,467,843,531,1135,973,594,1
605,197,433,797,495,1036,994,536,1
590,184,404,736,469,1023,1047,518,1
648,183,414,764,448,1036,987,530,1
611,172,371,738,435,968,981,465,1
540,154,309,704,424,839,1013,322,1
538,133,306,696,358,921,1036,343,1
540,120,279,683,336,933,1042,371,1
532,110,245,678,318,902,1064,371,1
516,108,261,692,327,859,1137,386,1
522,100,261,694,335,857,1032,383,1
532,98,244,650,339,721,934,352,1
509,93,247,699,357,719,907,313,1
437,108,229,602,366,702,906,277,1
446,122,228,583,337,807,899,255,1
420,134,234,562,342,805,907,248,1
383,137,230,559,336,819,922,235,1
364,144,223,511,323,802,1081,269,1
341,147,249,599,302,830,1095,278,1
315,136,232,603,285,736,1002,267,1
429,142,230,616,258,760,1079,263,1
453,138,225,596,234,765,1109,317,1
476,145,227,573,226,835,927,392,1
470,134,194,514,228,843,869,407,1
631,162,175,486,292,928,864,419,1
588,154,186,515,303,865,742,420,1
573,170,245,640,324,883,717,378,1
581,168,232,646,334,808,707,270,1
706,184,231,622,414,816,722,242,1
623,175,225,599,369,665,760,203,1
594,176,236,638,356,691,711,195,1
602,166,175,520,368,667,685,187,1
619,157,179,524,359,725,845,238,1
521,148,204,555,301,665,891,317,1
548,131,206,560,320,699,967,349,1
555,122,178,460,342,691,997,359,1
619,132,225,484,374,660,1060,366,1
585,127,221,463,395,585,967,329,1
538,113,205,503,378,657,940,292,1
423,113,233,582,367,658,796,255,1
431,116,229,600,361,639,742,245,1
437,116,196,673,328,651,691,247,1
427,139,211,674,317,733,688,273,1
418,145,205,617,336,689,666,216,1
422,143,174,525,335,717,755,220,1
418,151,176,486,314,750,835,228,1
339,139,178,428,296,750,798,230,1
319,117,166,403,292,749,767,212,1
335,109,169,391,279,727,795,222,1
338,105,154,379,286,658,695,224,1
368,91,140,365,287,650,649,207,1
364,109,128,394,315,647,706,199,1
394,113,120,417,300,579,730,207,1
406,110,111,422,299,582,654,199,1
495,130,125,432,304,639,705,205,1
497,145,140,479,310,639,733,236,1
468,127,131,426,304,595,756,240,1
477,122,127,417,319,610,748,227,1
661,130,161,525,337,593,759,302,1
612,109,163,522,334,577,721,296,1
594,82,150,472,323,568,797,276,1
591,85,166,467,288,580,713,276,1
639,104,183,488,287,549,712,285,1
472,95,158,364,240,526,715,215,1
494,99,148,378,217,549,719,240,1
495,114,155,402,233,563,617,249,1
509,120,161,415,241,559,627,243,1
434,104,155,404,262,562,701,238,1
29,24,37,148,455,205,95,235,0
29,26,35,140,495,277,106,222,0
30,26,39,184,448,281,110,180,0
31,27,39,192,459,278,106,169,0
29,27,40,194,511,294,100,174,0
28,26,38,226,443,282,93,174,0
30,24,37,222,442,196,85,172,0
26,23,33,178,466,214,91,190,0
27,25,36,182,553,237,93,183,0
26,27,36,187,532,218,85,144,0
30,30,38,162,562,207,79,125,0
30,31,39,165,580,206,75,117,0
35,36,52,186,651,193,59,71,0
46,57,64,177,571,160,43,50,0
48,62,69,173,539,146,40,36,0
45,61,68,166,511,131,38,33,0
49,65,81,175,525,118,35,30,0
51,74,92,160,484,88,35,31,0
42,62,85,161,483,84,32,27,0
39,58,92,187,498,80,30,26,0
39,59,109,209,461,77,31,26,0
33,55,110,198,375,73,29,21,0
24,39,106,204,248,54,26,18,0
20,39,116,217,235,65,27,16,0
18,36,112,240,217,77,27,16,0
23,36,106,237,212,96,37,14,0
22,38,104,250,157,90,36,15,0
22,37,95,237,138,88,33,16,0
22,35,98,260,163,77,33,15,0
25,41,118,269,262,77,34,17,0
21,36,110,262,270,76,21,18,0
23,34,104,254,279,78,19,18,0
23,35,113,272,281,78,20,16,0
22,32,99,236,264,79,18,16,0
20,24,78,194,145,65,16,13,0
20,26,82,195,126,37,17,13,0
19,33,100,210,106,51,21,14,0
19,31,88,185,90,51,20,16,0
19,32,87,185,78,50,21,17,0
19,30,80,164,53,50,30,18,0
18,30,76,177,44,50,30,19,0
18,25,53,146,38,28,28,18,0
23,37,101,231,44,26,30,19,0
26,39,106,247,47,27,29,18,0
30,43,119,272,77,40,27,17,0
32,47,138,271,89,42,26,18,0
32,46,138,270,103,43,25,18,0
29,37,108,205,102,44,23,16,0
28,37,108,194,101,44,23,17,0
23,33,92,153,82,32,13,16,0
20,25,52,115,69,28,13,14,0
19,26,58,124,45,25,18,14,0
21,26,55,108,37,21,17,16,0
19,22,45,92,33,20,18,15,0
18,22,43,89,26,23,19,15,0
17,23,43,85,24,21,20,17,0
17,22,34,57,22,20,15,17,0
14,23,36,54,22,22,16,15,0
15,22,40,92,28,42,14,15,0
17,25,61,156,87,106,15,15,0
19,31,94,173,93,120,16,12,0
22,47,113,178,94,123,21,17,0
22,48,117,193,96,124,20,16,0
22,49,118,187,96,121,22,17,0
21,49,114,163,53,72,20,17,0
19,46,92,156,45,45,20,18,0
16,27,63,150,42,35,16,14,0
15,24,52,131,39,31,16,13,0
15,22,51,138,38,24,15,14,0
16,20,58,219,35,19,15,16,0
14,18,57,220,32,18,14,16,0
14,17,57,224,30,17,14,17,0
16,17,58,227,28,17,14,18,0
13,15,53,216,25,16,13,16,0
13,14,29,101,20,16,17,15,0
14,14,24,94,20,16,16,15,0
15,15,24,84,22,16,17,13,0
13,13,22,75,22,16,17,13,0
13,14,19,70,22,14,19,12,0
13,12,19,68,22,13,16,11,0
14,13,17,48,20,15,16,12,0
12,14,15,43,18,14,16,12,0
14,13,15,37,19,14,17,11,0
15,12,17,36,20,14,16,10,0
13,13,18,32,20,15,16,10,0
13,14,16,22,19,13,16,9,0
12,12,15,21,18,14,14,9,0
11,13,15,20,15,13,15,10,0
11,13,13,18,13,14,13,11,0
11,12,13,18,11,15,11,12,0
13,11,14,16,12,14,12,14,0
12,12,14,20,12,14,15,14,0
13,12,13,20,14,14,14,14,0
14,14,13,18,14,15,14,13,0
15,13,13,19,14,12,14,13,0
14,15,13,20,14,13,15,12,0
15,15,14,15,14,12,12,11,0
14,14,14,16,15,12,14,12,0
14,14,14,16,14,9,14,13,0
13,14,13,15,14,9,15,16,0
13,17,12,14,13,10,13,15,0
13,17,14,14,13,12,14,15,0
11,17,15,26,11,13,12,15,0
18,17,20,77,17,14,12,15,0
19,19,25,81,20,14,11,14,0
18,16,28,82,21,13,13,14,0
19,15,28,85,22,12,13,15,0
20,19,35,102,22,10,14,14,0
16,30,63,120,26,12,16,16,0
16,30,66,124,24,12,17,14,0
15,30,66,126,23,12,15,14,0
15,31,66,126,23,10,16,15,0
15,29,64,111,26,13,16,16,0
12,16,34,59,18,13,15,13,0
12,16,25,45,19,13,15,14,0
12,17,23,56,19,16,14,16,0
14,15,22,54,18,17,13,15,0
13,16,23,68,16,16,13,13,0
13,19,32,115,23,16,11,15,0
21,24,38,135,26,17,12,17,0
21,26,39,132,27,15,13,15,0
26,39,87,242,35,33,15,17,0
26,49,109,272,45,32,17,17,0
25,48,111,298,46,34,16,16,0
19,47,113,295,48,34,16,14,0
26,52,121,307,51,34,17,16,0
21,44,95,258,47,19,15,13,0
21,32,76,260,44,19,13,13,0
24,38,80,223,39,16,15,15,0
26,43,80,222,40,15,15,16,0
22,39,83,213,37,14,16,17,0
24,40,94,288,36,14,16,19,0
26,43,94,277,42,16,16,20,0
36,41,91,271,45,19,16,20,0
34,37,88,270,42,18,16,19,0
37,37,75,268,45,19,14,17,0
44,35,60,190,47,19,14,16,0
52,33,50,166,36,19,15,24,0
48,31,47,174,31,15,14,32,0
88,33,58,207,38,16,15,34,0
93,32,66,227,34,14,16,39,0
89,37,76,206,35,15,15,44,0
84,35,77,205,35,15,15,40,0
83,37,87,218,43,16,16,33,0
39,37,96,208,38,17,19,31,0
19,38,90,189,41,23,27,24,0
20,37,92,197,44,22,28,16,0
22,38,98,195,45,21,39,20,0
22,36,91,175,39,28,102,24,0
24,36,114,247,90,102,109,30,0
26,40,139,281,102,124,111,31,0
24,39,136,276,104,131,113,31,0
23,42,147,292,107,132,110,29,0
22,43,152,297,109,133,59,25,0
26,47,144,254,75,92,44,20,0
25,44,135,237,58,59,34,18,0
26,43,133,229,53,45,28,18,0
26,40,121,212,45,55,25,18,0
26,38,113,208,41,52,20,18,0
20,28,86,170,45,121,25,17,0
25,42,92,155,48,122,36,19,0
25,45,98,211,55,124,39,20,0
26,45,90,204,53,121,106,19,0
27,46,90,203,55,122,110,20,0
27,48,94,202,56,116,115,20,0
22,36,80,197,99,164,118,21,0
22,37,90,239,146,191,126,25,0
20,37,95,251,153,197,80,25,0
22,37,96,257,157,212,81,25,0
30,48,95,261,160,229,103,35,0
30,46,82,251,137,200,105,35,0
28,42,71,223,86,179,95,32,0
28,43,71,220,79,189,96,33,0
27,43,71,214,93,221,95,34,0
20,32,67,204,96,207,67,27,0
20,31,65,201,96,208,55,25,0
21,30,50,126,92,205,53,25,0
22,28,54,151,91,195,49,25,0
20,25,48,141,67,138,40,22,0
18,21,48,141,42,89,22,18,0
21,22,50,140,44,97,21,20,0
21,27,62,136,45,108,21,17,0
22,30,54,147,64,97,20,20,0
23,34,62,180,98,95,20,21,0
34,47,93,220,170,96,20,23,0
36,47,93,225,210,76,20,23,0
35,44,85,225,408,72,21,24,0
36,43,86,209,586,88,27,26,0
39,48,98,293,687,97,31,28,0
36,49,81,288,796,167,47,30,0
34,55,84,296,839,173,47,31,0
34,57,84,300,808,172,49,32,0
33,57,86,303,747,189,51,32,0
30,52,66,222,735,206,49,30,0
34,51,91,235,711,182,42,33,0
36,52,88,236,746,185,43,32,0
37,52,91,232,731,187,42,31,0
38,55,90,221,689,209,43,29,0
41,64,94,198,653,207,46,31,0
40,61,64,175,573,194,52,34,0
38,57,68,156,446,187,52,37,0
42,63,74,157,441,182,51,41,0
41,65,74,164,474,134,50,41,0
38,61,73,221,458,131,50,40,0
32,62,73,200,423,111,36,33,0
31,61,70,204,422,126,36,29,0
27,57,67,201,377,178,36,28,0
32,55,67,195,420,188,31,34,0
32,52,69,136,509,178,29,35,0
33,46,65,134,506,179,29,36,0
33,46,63,146,514,182,36,37,0
39,49,69,152,562,226,55,43,0
42,53,71,159,518,221,60,41,0
42,49,62,155,385,224,63,42,0
44,57,64,171,405,226,63,43,0
46,68,75,173,421,235,61,42,0
42,72,83,186,383,150,44,31,0
35,69,78,171,337,144,37,25,0
39,77,80,170,344,145,34,24,0
35,70,81,158,329,167,36,21,0
41,64,79,169,322,145,34,23,0
40,57,70,174,381,181,48,32,0
41,55,72,173,420,302,62,37,0
40,44,70,167,424,302,61,36,0
46,50,68,165,430,302,116,40,0
45,53,61,166,426,306,120,40,0
46,50,54,178,344,287,118,35,0
44,50,50,178,343,190,115,31,0
42,50,48,190,332,185,115,31,0
40,48,53,198,317,167,61,26,0
33,42,69,193,302,164,53,25,0
33,44,79,165,363,169,52,23,0
34,45,78,160,399,137,82,26,0
39,52,80,146,401,176,105,25,0
36,50,77,126,392,195,107,24,0
36,57,102,97,391,196,109,24,0
35,56,101,123,330,192,106,24,0
36,56,107,131,209,203,84,24,0
32,52,129,301,179,205,115,29,0
36,53,133,340,163,232,125,37,0
36,44,115,413,227,232,125,36,0
36,44,114,416,303,261,126,37,0
34,43,109,421,316,263,128,38,0
33,40,87,332,312,238,79,33,0
30,37,83,297,314,195,54,25,0
37,37,72,186,275,186,51,25,0
36,36,74,168,188,147,48,25,0
36,35,77,157,209,161,32,20,0
37,38,87,155,270,188,37,21,0
41,39,94,171,274,190,41,25,0
34,40,106,217,316,230,51,25,0
37,43,103,285,341,234,54,27,0
37,42,101,293,324,204,55,28,0
35,35,86,324,296,182,54,27,0
27,33,78,316,305,217,50,23,0
28,35,83,371,251,174,40,23,0
22,30,74,335,245,183,36,21,0
23,32,78,336,246,205,34,19,0
21,34,81,300,218,201,28,19,0
23,34,79,295,194,165,41,20,0
22,29,56,171,213,183,42,17,0
24,32,70,194,180,167,41,19,0
23,31,67,186,177,140,41,19,0
24,29,65,185,183,134,40,19,0
24,30,71,224,198,157,25,19,0
25,33,68,233,236,167,25,21,0
24,28,51,203,228,162,25,19,0
24,33,53,220,271,213,31,20,0
25,33,53,220,293,212,31,24,0
23,32,46,199,300,190,30,23,0
25,32,44,190,259,164,27,22,0
24,32,48,201,313,223,31,22,0
23,26,40,173,287,186,24,21,0
20,26,43,179,261,191,23,16,0
24,30,45,180,270,228,36,23,0
20,27,54,215,313,261,42,24,0
24,31,53,193,356,224,45,29,0
24,34,54,192,391,221,47,32,0
25,34,50,193,418,225,47,32,0
24,31,57,242,414,187,39,28,0
22,30,49,220,402,150,36,27,0
20,28,54,234,384,185,37,24,0
22,26,54,237,352,219,36,20,0
21,26,54,234,336,212,36,21,0
19,26,45,208,356,213,37,23,0
19,29,50,209,356,212,40,27,0
23,31,44,202,298,190,42,30,0
21,29,48,217,281,140,93,30,0
21,29,49,212,272,139,99,31,0
23,30,52,211,223,144,102,31,0
23,26,47,249,176,170,102,28,0
19,23,52,267,155,150,100,23,0
17,25,50,268,184,147,67,25,0
18,25,50,271,337,166,83,26,0
17,24,45,247,354,174,85,26,0
18,23,43,199,362,133,85,23,0
23,24,36,166,363,128,84,25,0
24,23,41,147,350,133,76,23,0
23,28,60,156,328,250,52,21,0
23,27,59,154,321,304,58,21,0
23,29,60,165,329,309,58,25,0
18,26,59,164,343,326,59,25,0
19,26,54,166,358,333,59,24,0
19,23,52,234,261,319,89,28,0
21,28,63,234,303,288,85,28,0
20,26,64,226,293,292,84,25,0
20,27,67,256,303,312,89,26,0
18,26,68,254,280,303,88,27,0
16,24,58,228,281,236,57,22,0
12,20,45,231,284,230,48,20,0
16,22,42,253,298,233,46,21,0
20,22,41,273,312,241,44,20,0
20,24,42,297,330,250,42,18,0
21,26,38,267,312,243,40,17,0
21,23,40,277,275,237,37,21,0
19,15,33,90,21,88,19,13,0
16,14,29,86,18,80,18,12,0
13,17,24,53,16,42,17,12,0
14,18,24,45,15,35,15,14,0
12,17,18,68,14,25,15,14,0
12,17,19,74,15,20,14,14,0
14,16,16,74,15,17,14,15,0
14,16,16,73,14,17,17,15,0
15,14,17,75,15,18,45,15,0
15,15,23,65,21,81,66,16,0
16,18,32,78,28,94,78,19,0
15,21,41,93,28,102,82,19,0
15,20,42,95,34,129,89,19,0
15,20,41,91,34,133,84,19,0
18,20,39,79,48,123,73,21,0
17,18,37,73,46,120,78,20,0
16,15,27,50,47,117,85,19,0
15,16,28,61,45,90,86,19,0
18,25,42,146,49,120,130,23,0
17,25,43,152,49,276,140,22,0
19,25,41,153,82,293,144,23,0
20,25,43,166,106,331,152,25,0
20,25,43,163,106,335,150,26,0
18,18,29,95,106,328,115,22,0
18,17,25,85,100,211,101,22,0
16,16,23,100,76,182,91,20,0
16,14,24,89,35,104,72,18,0
16,16,31,104,38,88,66,17,0
14,13,31,107,36,70,84,16,0
12,14,33,108,35,55,82,15,0
15,18,43,93,32,57,82,16,0
17,17,47,127,30,49,79,17,0
16,18,47,127,28,59,85,18,0
18,19,49,128,27,68,86,18,0
19,18,50,133,28,70,103,21,0
21,30,70,164,44,105,94,22,0
20,31,71,140,46,109,99,21,0
20,29,69,136,43,108,107,21,0
20,30,73,147,46,111,124,21,0
20,31,80,176,65,248,120,18,0
18,23,70,168,68,267,177,21,0
23,33,85,202,73,268,184,21,0
24,37,91,206,77,273,177,21,0
26,39,93,200,98,365,160,25,0
30,46,99,180,98,330,189,32,0
29,48,102,188,94,334,161,28,0
29,45,100,160,92,338,153,29,0
29,44,102,156,91,335,159,30,0
26,43,98,157,85,243,173,27,0
24,37,95,266,210,223,142,28,0
23,34,91,290,221,198,121,28,0
26,30,81,297,224,187,117,28,0
26,32,85,300,228,188,133,28,0
29,34,91,321,225,168,126,30,0
28,35,93,256,111,117,128,21,0
33,57,165,252,94,100,140,23,0
31,68,192,305,173,120,160,24,0
32,75,211,314,189,176,148,24,0
31,74,213,297,193,182,134,22,0
32,79,229,335,196,184,124,22,0
28,66,190,329,193,170,104,21,0
26,56,166,278,123,157,72,17,0
25,47,136,264,89,92,50,16,0
23,48,134,268,80,84,48,17,0
21,35,96,211,118,79,56,16,0
21,32,77,178,122,80,78,15,0
18,30,67,171,122,75,96,15,0
19,27,67,191,123,64,101,15,0
20,24,59,191,120,63,100,13,0
20,22,57,180,72,107,94,13,0
18,21,54,164,64,138,79,15,0
18,21,56,163,57,142,50,16,0
16,20,51,153,55,140,57,16,0
14,18,47,134,65,144,55,15,0
14,18,44,119,66,130,55,14,0
24,20,43,117,81,151,57,15,0
26,19,49,110,95,151,59,14,0
26,21,49,93,94,151,65,16,0
26,21,52,116,103,149,85,16,0
27,20,57,137,104,138,89,16,0
25,18,55,136,94,75,88,14,0
26,19,45,132,82,69,87,14,0
27,15,39,120,81,63,73,13,0
27,18,36,92,55,57,95,14,0
26,17,27,51,45,48,98,15,0
20,18,27,52,42,47,103,16,0
17,19,24,39,33,50,103,18,0
15,18,26,50,37,62,103,19,0
21,17,32,61,34,58,62,18,0
22,17,32,64,32,56,50,19,0
25,17,33,69,32,53,57,21,0
25,16,37,78,35,51,59,20,0
25,18,41,77,30,35,58,18,0
20,20,44,81,29,29,58,18,0
19,20,44,91,28,27,56,18,0
24,19,44,91,25,24,30,13,0
24,20,40,86,20,22,20,13,0
24,18,36,83,19,27,21,13,0
24,17,29,82,22,29,37,14,0
25,17,35,72,23,28,39,12,0
19,19,35,66,23,30,40,13,0
16,18,35,63,24,32,43,15,0
16,18,35,60,25,29,43,15,0
15,14,31,57,24,28,26,15,0
15,18,24,59,26,30,28,16,0
15,16,27,84,26,28,33,17,0
25,17,31,109,34,34,31,16,0
26,17,30,112,34,35,30,15,0
28,17,30,107,32,34,30,15,0
29,14,25,102,30,32,26,14,0
27,14,21,87,33,35,20,13,0
19,13,16,54,25,29,26,13,0
17,15,16,48,25,27,29,14,0
12,16,16,45,27,27,29,14,0
10,17,17,43,27,27,29,13,0
22,18,17,36,23,24,28,13,0
25,18,16,30,20,21,21,13,0
47,18,16,25,18,18,17,15,0
68,18,16,25,16,18,16,17,0
70,18,15,22,15,18,15,18,0
90,20,15,17,15,16,19,38,0
90,20,16,16,14,15,17,40,0
86,21,17,16,15,15,18,40,0
76,53,15,15,13,15,18,40,0
81,71,18,16,14,15,20,40,0
146,186,25,17,14,14,18,25,0
182,211,27,16,14,13,18,25,0
188,223,26,17,16,15,17,26,0
196,222,27,16,18,14,19,28,0
208,220,28,16,17,14,18,29,0
190,164,24,16,17,15,16,26,0
160,132,22,15,17,15,16,24,0
155,121,22,16,16,15,16,22,0
146,114,21,17,14,17,14,20,0
127,109,19,17,15,15,12,17,0
73,65,15,16,14,13,12,15,0
86,122,16,17,14,15,14,15,0
113,127,20,17,17,16,15,18,0
110,128,21,17,16,15,17,16,0
111,129,21,16,19,16,18,17,0
109,130,22,15,19,16,18,18,0
98,99,22,15,19,17,18,17,0
62,88,21,14,18,15,17,16,0
60,86,20,13,18,17,15,17,0
97,178,23,14,15,18,15,18,0
98,183,21,15,15,18,15,18,0
96,179,20,16,15,17,14,19,0
92,178,18,14,16,17,14,18,0
97,180,19,15,15,14,15,17,0
101,125,17,15,15,12,16,21,0
147,186,22,16,16,15,17,25,0
152,185,23,15,16,14,17,26,0
156,183,23,15,14,14,16,26,0
156,183,22,15,14,15,16,27,0
134,161,21,14,13,15,15,24,0
89,76,16,13,13,12,16,20,0
102,109,18,14,12,14,16,18,0
95,112,18,15,15,15,16,18,0
91,112,18,15,14,15,15,18,0
96,113,17,15,16,15,15,16,0
97,151,17,15,16,16,15,17,0
94,134,15,14,17,14,16,18,0
121,145,15,14,14,15,16,17,0
123,151,15,15,15,13,16,16,0
157,155,17,14,14,13,16,18,0
153,122,16,14,14,13,15,17,0
145,109,17,14,14,13,14,16,0
124,100,15,13,14,14,13,16,0
131,121,14,14,14,14,15,19,0
113,119,14,15,13,14,15,19,0
115,122,15,13,12,14,15,19,0
112,120,13,14,14,14,15,19,0
114,111,15,13,15,12,15,21,0
113,100,16,13,13,13,13,17,0
78,98,16,14,16,14,14,17,0
81,92,16,14,17,15,13,18,0
104,102,15,14,18,15,14,18,0
101,117,15,14,18,16,13,17,0
100,97,14,14,18,17,14,18,0
113,103,14,13,16,15,14,17,0
116,99,13,16,16,16,14,20,0
104,100,12,17,15,16,15,19,0
102,102,16,32,40,16,16,19,0
94,99,18,42,59,16,15,18,0
83,106,19,53,169,21,16,19,0
81,110,22,56,175,25,16,16,0
103,134,27,66,181,25,15,18,0
117,130,37,119,460,81,43,30,0
130,144,59,231,592,136,59,38,0
130,137,62,235,615,143,61,40,0
141,172,65,264,673,146,63,41,0
123,161,66,264,718,152,64,41,0
109,155,61,245,637,139,51,35,0
93,143,43,179,601,100,39,30,0
89,139,45,222,608,99,37,28,0
58,86,42,192,557,96,37,27,0
49,63,39,194,530,91,36,27,0
59,112,40,195,482,85,34,26,0
56,117,45,166,380,70,28,23,0
56,122,38,97,310,59,26,22,0
53,123,75,135,288,56,22,21,0
48,120,101,231,279,50,21,20,0
31,72,111,240,261,40,19,18,0
27,62,113,237,256,37,19,16,0
27,50,130,261,240,26,17,15,0
24,51,152,329,233,25,16,16,0
23,48,144,288,163,21,17,16,0
23,46,144,292,122,20,16,16,0
26,60,181,349,111,22,14,18,0
33,73,227,377,123,34,15,21,0
32,68,221,341,150,36,16,20,0
33,69,221,334,146,36,15,18,0
32,69,220,326,152,40,17,19,0
30,58,195,277,145,45,21,19,0
22,39,126,221,120,48,23,16,0
20,34,95,160,68,48,26,17,0
18,30,82,139,58,49,26,17,0
22,31,96,213,35,45,25,18,0
22,28,84,205,38,40,22,15,0
21,26,81,196,36,28,19,14,0
22,26,74,193,40,28,14,14,0
22,25,73,193,40,30,15,14,0
16,21,47,102,38,28,15,13,0
16,29,87,154,39,26,16,13,0
15,31,89,151,55,25,17,13,0
14,30,89,150,100,40,17,14,0
15,30,92,156,114,47,15,14,0
15,30,94,180,148,53,17,14,0
18,27,66,167,157,54,16,14,0
18,27,75,226,157,54,18,15,0
17,26,76,233,139,57,19,13,0
18,27,72,234,136,56,19,13,0
20,32,78,242,134,59,18,14,0
16,30,80,248,156,62,20,15,0
17,30,71,216,163,80,19,14,0
17,30,69,210,161,81,19,16,0
15,30,68,206,158,78,20,15,0
13,27,67,191,140,75,18,15,0
14,27,68,185,153,74,15,14,0
15,26,67,176,209,61,20,16,0
16,26,69,188,229,51,23,17,0
21,27,70,196,233,85,23,18,0
20,22,62,195,241,104,24,20,0
23,28,114,264,357,243,35,22,0
23,35,134,307,409,289,34,23,0
23,34,136,309,417,300,35,23,0
21,35,138,307,563,321,48,25,0
24,36,140,307,626,326,54,26,0
25,34,101,254,579,246,54,31,0
27,32,83,197,539,191,55,33,0
27,33,84,219,534,174,54,33,0
27,34,83,229,393,113,44,31,0
25,35,77,224,300,81,36,30,0
24,31,66,190,266,64,28,26,0
20,28,51,176,230,51,21,21,0
19,28,39,137,243,46,22,20,0
19,27,38,110,341,51,25,22,0
19,25,39,114,372,62,27,20,0
20,31,60,149,417,64,31,19,0
22,30,60,160,449,67,31,19,0
24,30,60,149,434,65,33,42,0
22,29,59,147,345,60,30,41,0
21,27,53,129,290,42,28,44,0
18,20,29,97,283,42,26,44,0
16,21,25,76,237,37,27,44,0
14,22,23,75,233,38,25,24,0
15,21,21,74,234,43,25,23,0
14,19,21,71,232,49,22,16,0
15,19,20,39,129,61,18,18,0
14,19,18,36,111,73,16,17,0
16,19,21,35,103,87,15,16,0
15,19,20,33,85,95,15,16,0
14,19,20,31,64,95,18,15,0
13,19,19,28,56,86,17,14,0
14,17,19,27,51,89,19,14,0
13,15,16,21,45,80,17,15,0
14,17,18,19,46,74,19,16,0
18,18,17,20,26,79,16,16,0
18,18,17,18,25,79,17,15,0
18,18,16,15,19,64,14,16,0
19,17,16,17,19,59,15,15,0
19,15,14,17,23,87,13,19,0
17,14,14,18,24,81,13,19,0
16,13,11,18,26,81,14,19,0
16,14,13,18,26,89,14,18,0
17,15,14,17,26,94,15,18,0
16,15,15,17,21,75,14,14,0
16,14,15,17,19,90,16,15,0
16,13,17,17,19,92,15,16,0
15,15,16,17,21,96,17,18,0
16,14,16,18,22,92,15,17,0
15,14,16,17,22,92,15,20,0
15,16,16,16,22,76,15,19,0
15,15,17,14,24,103,16,18,0
15,16,18,14,25,97,17,16,0
14,16,17,14,24,97,18,18,0
15,16,16,14,24,89,17,16,0
17,17,17,15,25,103,18,16,0
16,17,16,14,23,90,18,17,0
17,15,13,17,20,92,15,17,0
17,14,14,17,20,90,14,15,0
17,13,15,16,19,98,15,15,0
14,12,14,16,23,99,13,15,0
16,13,15,18,23,87,15,14,0
15,13,16,16,22,78,14,14,0
15,15,18,17,25,78,17,15,0
14,16,17,19,24,66,17,13,0
14,15,17,19,22,55,16,14,0
14,14,15,17,21,53,15,14,0
14,15,16,17,21,68,15,14,0
14,14,14,21,20,69,12,16,0
15,15,15,22,21,81,11,16,0
16,15,16,36,85,115,14,14,0
16,18,17,39,91,119,15,16,0
15,18,22,55,99,114,17,17,0
16,18,24,63,108,115,20,15,0
17,17,29,73,170,107,20,15,0
16,19,33,94,270,60,24,17,0
22,24,49,123,378,90,26,19,0
30,42,77,153,528,109,35,23,0
37,50,82,169,592,121,36,24,0
42,61,91,183,611,123,38,27,0
48,64,95,181,593,123,37,28,0
47,70,93,165,535,101,40,31,0
45,67,78,144,392,75,32,30,0
41,66,76,125,286,50,30,42,0
39,60,68,120,221,45,38,71,0
32,60,65,120,160,40,37,74,0
31,52,62,129,210,36,32,74,0
28,44,53,122,209,60,37,100,0
28,36,49,128,250,74,47,130,0
26,34,47,114,328,95,46,127,0
33,36,55,134,392,103,49,148,0
34,32,52,125,371,150,50,178,0
37,35,56,147,430,163,49,169,0
35,38,56,159,471,204,43,147,0
38,41,65,197,496,206,37,141,0
37,38,61,189,493,214,35,119,0
36,39,61,189,523,256,36,68,0
34,36,67,178,494,257,33,55,0
38,44,84,181,542,244,33,46,0
42,51,87,161,479,240,33,40,0
37,48,82,161,441,230,32,34,0
36,47,82,164,410,148,27,26,0
37,49,84,186,547,272,54,37,0
37,47,76,192,560,305,90,44,0
32,38,73,180,575,308,98,46,0
31,37,72,168,609,315,120,47,0
35,40,72,175,615,319,162,48,0
33,39,62,148,512,236,164,42,0
40,38,51,134,491,227,168,46,0
38,33,33,122,485,231,169,45,0
41,37,42,129,456,229,166,46,0
38,35,42,130,445,230,174,47,0
40,34,43,134,416,277,203,46,0
28,28,45,166,329,242,188,32,0
28,33,50,192,321,246,185,28,0
24,29,47,202,287,245,178,23,0
29,30,50,226,297,255,140,23,0
26,32,48,239,294,181,83,21,0
25,30,46,227,302,263,83,27,0
26,26,42,215,403,275,88,30,0
26,29,38,206,418,278,82,34,0
25,33,39,193,407,263,71,32,0
33,34,39,176,428,258,66,33,0
34,36,38,154,536,267,97,32,0
32,35,36,151,479,245,90,30,0
31,35,39,203,474,239,91,36,0
31,31,36,202,485,243,90,38,0
21,28,34,201,489,246,90,38,0
21,28,39,241,417,180,57,38,0
23,27,43,249,408,179,62,40,0
25,28,47,233,407,183,101,69,0
933,243,253,664,439,969,901,597,1
830,217,256,666,438,932,931,608,1
823,232,178,521,388,898,872,621,1
850,256,216,612,484,952,914,664,1
747,258,206,598,453,899,923,568,1
693,261,228,637,442,925,859,614,1
804,279,235,687,463,946,913,639,1
852,274,236,699,495,975,954,724,1
896,265,224,735,420,918,878,756,1
838,247,202,728,425,966,893,769,1
815,226,181,771,424,929,930,705,1
797,224,193,733,448,934,913,685,1
803,231,190,724,411,997,838,605,1
772,223,170,618,413,1076,959,598,1
813,231,211,727,426,1025,979,715,1
849,227,212,705,415,1059,988,728,1
826,224,209,651,398,1024,910,731,1
796,210,218,661,377,988,957,724,1
881,257,239,695,353,906,964,838,1
922,253,232,617,391,917,964,830,1
874,263,255,596,431,901,1024,899,1
892,260,249,605,415,916,1091,943,1
883,301,251,646,449,916,1075,942,1
794,249,265,669,458,955,1061,876,1
751,250,282,685,457,933,1020,828,1
779,265,259,664,437,942,914,767,1
823,277,257,703,453,1006,980,713,1
1005,275,273,702,473,998,1089,923,1
1087,328,269,707,487,960,1073,1025,1
1083,326,281,795,466,1054,1053,997,1
1084,313,286,792,512,1006,1115,1027,1
1013,319,278,793,483,964,1058,990,1
880,290,264,795,437,965,974,888,1
747,250,247,786,417,1010,987,741,1
786,246,178,643,427,1011,1066,779,1
805,280,167,675,388,1010,1068,717,1
862,297,215,671,383,1014,1098,759,1
835,300,204,605,416,1109,1066,666,1
887,328,197,614,394,1117,1031,641,1
854,350,224,639,377,1086,961,674,1
871,330,230,649,337,1074,937,665,1
830,289,191,677,374,1072,929,718,1
933,309,295,809,394,1015,980,861,1
879,271,296,748,403,973,960,842,1
895,264,289,713,378,898,983,846,1
821,260,335,707,385,905,1016,882,1
812,301,394,685,410,926,1001,885,1
701,303,359,568,402,1004,985,775,1
820,354,369,585,491,994,991,976,1
809,350,408,757,502,1043,981,959,1
895,370,384,776,558,1151,993,1021,1
999,371,325,771,574,1260,1004,1044,1
1003,375,300,802,540,1155,940,1039,1
905,338,284,793,474,1185,1010,827,1
903,339,220,665,492,1183,1054,810,1
928,339,197,672,470,1091,1035,710,1
856,329,253,803,437,1006,1004,725,1
855,329,294,821,454,1015,1064,745,1
935,393,292,829,528,996,1094,791,1
918,406,293,796,533,1095,1021,789,1
816,383,290,790,496,1116,1038,790,1
805,363,251,669,542,1100,1051,759,1
818,362,176,606,584,1097,1028,758,1
933,393,200,629,580,1271,945,884,1
1034,383,230,776,567,1163,957,914,1
1030,389,273,772,572,1153,935,943,1
970,406,262,757,582,1168,949,902,1
981,424,274,743,535,1163,967,1004,1
878,364,329,752,473,986,1048,953,1
759,345,312,689,467,984,1027,942,1
790,364,291,742,574,1062,1028,915,1
903,418,304,701,513,1022,1006,912,1
975,407,305,689,512,1066,1028,863,1
992,372,285,784,489,1028,934,845,1
1075,374,288,745,508,1081,986,844,1
1074,424,277,698,461,1106,1013,859,1
1059,355,260,714,425,1092,1121,863,1
976,351,304,772,466,989,1102,808,1
997,450,339,745,502,1061,1106,821,1
1011,474,343,727,521,1042,1103,877,1
1007,446,347,731,489,1032,1083,914,1
986,493,360,772,494,1054,987,920,1
1042,486,378,844,496,1126,989,966,1
935,406,357,825,511,1135,1046,978,1
956,403,378,915,505,1114,1052,1031,1
1017,417,416,953,474,1070,1073,1176,1
1088,369,438,1000,527,1098,1063,1188,1
1085,390,406,976,506,1058,1027,1219,1
1231,485,386,1042,563,1038,1005,1251,1
1255,539,395,1007,611,1086,1051,1194,1
1258,535,400,991,726,1094,1094,1123,1
1254,599,415,972,728,1063,1108,1196,1
1228,611,502,977,741,1107,1111,1224,1
1218,592,562,969,691,1119,1111,1244,1
1191,550,562,1073,659,1075,1049,1269,1
1230,539,587,1090,552,1134,1003,1281,1
1189,589,588,1081,569,1156,1022,1294,1
1283,624,607,1125,579,1135,1099,1363,1
1253,594,557,1106,571,1089,1066,1379,1
1321,651,546,998,553,1153,1185,1422,1
1302,668,492,1018,522,1088,1191,1438,1
1316,563,510,1074,492,1112,1141,1351,1
1261,541,474,1103,452,1133,1192,1242,1
1290,550,487,1053,486,1206,1249,1176,1
1167,490,501,1058,529,1202,1148,1224,1
1129,475,557,1071,540,1213,1118,1211,1
1119,511,573,1028,510,1173,1135,1250,1
1179,508,555,924,512,1180,1096,1312,1
1075,539,543,962,465,1182,1036,1394,1
1188,628,587,989,471,1238,1062,1375,1
1170,679,569,952,506,1344,1048,1371,1
1179,701,518,992,552,1380,1160,1369,1
1120,729,485,1064,583,1378,1079,1366,1
1132,703,506,1060,621,1372,1086,1276,1
946,608,458,1059,578,1325,1037,1247,1
1061,670,413,982,585,1239,1156,1269,1
1129,685,447,934,582,1201,1059,1301,1
1127,615,460,881,623,1253,1105,1235,1
1140,595,415,819,604,1218,1127,1209,1
1196,663,429,808,603,1134,1163,1132,1
1132,545,423,841,573,1136,1103,1047,1
1139,508,403,860,550,1137,1133,1027,1
1064,524,387,877,450,1026,1124,985,1
1068,525,379,841,408,1011,1222,1046,1
1067,503,339,806,385,1128,1268,1095,1
1054,488,349,867,382,1088,1273,1114,1
1005,440,318,799,348,1071,1245,1131,1
1068,454,292,738,394,1200,1276,1241,1
1064,485,316,828,448,1244,1158,1268,1
1038,398,319,852,455,1160,1095,1275,1
1041,412,324,833,464,1162,1030,1243,1
1021,427,329,865,489,1187,1081,1281,1
960,453,335,881,452,1129,1033,1275,1
996,450,352,877,427,1033,999,1228,1
1118,484,345,910,449,1092,1007,1265,1
1230,472,337,878,458,1069,1079,1354,1
1250,523,374,868,614,1123,1126,1395,1
1266,466,417,880,649,1213,1193,1294,1
1189,467,392,846,640,1321,1271,1292,1
1100,437,387,840,627,1333,1301,1277,1
1086,543,425,873,624,1346,1242,1259,1
1130,499,424,903,496,1278,1136,1151,1
1135,540,382,880,494,1155,1122,1166,1
1228,531,407,928,533,1066,1024,1179,1
1243,559,466,977,581,1027,989,1144,1
1249,481,496,987,573,1047,1087,1193,1
1211,504,506,1031,597,1027,1146,1207,1
1170,478,495,978,553,1031,1095,1246,1
1170,482,467,890,513,1009,1147,1286,1
1180,456,426,783,447,965,1174,1226,1
1024,424,339,772,438,1002,1087,1088,1
971,387,258,640,350,1105,1077,1092,1
1078,377,248,674,359,1083,1074,1058,1
1053,370,317,757,358,1149,1088,1105,1
1110,413,332,767,386,1257,1121,1186,1
1232,420,338,702,372,1230,1178,1238,1
1269,470,356,725,385,1156,1149,1221,1
1225,506,498,852,410,1184,1158,1263,1
1204,529,504,911,445,1185,1210,1232,1
1159,506,496,913,497,1046,1200,1234,1
1125,557,496,915,498,1056,1188,1213,1
1127,608,525,930,516,1116,1233,1297,1
1206,618,583,972,536,1114,1267,1313,1
1237,646,611,958,618,1155,1235,1273,1
1270,697,630,962,597,1191,1185,1243,1
1268,683,642,969,609,1106,1223,1337,1
1288,616,655,1025,623,1109,1198,1305,1
1212,592,569,979,642,1105,1109,1254,1
1240,682,505,924,561,992,1143,1377,1
1295,720,486,881,524,999,1173,1401,1
1323,732,547,935,590,1067,1173,1366,1
1303,722,592,977,558,1114,1154,1297,1
1407,790,649,994,551,1167,1213,1392,1
1380,687,653,961,521,1159,1168,1263,1
1312,637,674,1070,522,1126,1173,1259,1
1282,680,667,1094,552,1235,1166,1191,1
1232,679,606,1030,584,1140,1175,1189,1
1164,581,481,940,555,1112,1175,1078,1
1169,640,471,979,628,1169,1160,1080,1
1138,601,484,953,669,1210,1211,1109,1
1094,514,456,988,592,1069,1189,1100,1
1150,614,588,1016,593,1090,1183,1194,1
1294,717,584,1063,664,1067,1221,1205,1
1364,767,615,1109,594,1034,1217,1318,1
1397,855,575,1130,614,1036,1152,1317,1
1463,851,620,1066,658,1094,1094,1321,1
1439,810,490,1041,635,1097,1139,1272,1
1328,821,548,1003,614,1093,1091,1252,1
1194,726,568,982,678,1108,1038,1074,1
1132,622,583,952,657,1102,1068,952,1
1096,683,498,948,636,1165,1226,922,1
1248,760,536,1039,658,1135,1192,1057,1
1243,664,544,1086,624,1214,1257,1158,1
1239,675,542,1085,588,1188,1308,1178,1
1238,662,532,1081,627,1225,1247,1217,1
1227,621,581,1086,640,1141,1144,1282,1
1087,520,543,926,683,1206,1116,1169,1
1010,514,552,963,710,1160,1071,1108,1
1141,572,504,974,722,1184,1062,1129,1
1229,621,511,948,643,1116,1198,1137,1
1199,603,451,911,596,1158,1171,1083,1
1228,583,450,978,550,1190,1248,1141,1
1265,742,488,947,550,1157,1295,1197,1
1232,672,517,926,535,1164,1293,1180,1
1131,699,491,917,554,1214,1220,1175,1
1159,702,501,1034,582,1204,1261,1226,1
1140,721,626,1091,559,1123,1150,1130,1
1160,550,572,1200,562,1137,1173,1112,1
1157,561,566,1199,557,1130,1240,1116,1
1150,558,568,1216,581,1125,1271,1156,1
1148,618,610,1245,576,1043,1290,1186,1
1148,614,563,1257,606,1031,1340,1192,1
1136,664,510,1084,532,1076,1272,1144,1
1089,663,509,1045,514,1169,1268,1154,1
1114,627,596,1056,541,1206,1228,1150,1
1057,568,571,960,527,1229,1144,1040,1
1117,689,477,858,456,1285,1135,1054,1
1063,642,516,889,531,1261,1128,1031,1
1067,650,510,954,561,1124,1067,1064,1
1076,634,424,914,545,1067,1038,975,1
1125,619,412,923,555,1096,1063,998,1
1057,439,420,937,562,987,1200,1088,1
1182,507,390,968,505,957,1270,1148,1
1168,478,464,993,488,1034,1261,1089,1
1172,514,450,976,452,1040,1249,1121,1
1198,586,425,899,398,957,1229,1091,1
1139,596,450,866,442,1073,1037,962,1
945,526,434,750,431,1093,927,829,1
922,511,326,607,377,966,846,793,1
839,438,294,533,339,891,842,796,1
654,323,282,491,355,859,805,827,1
726,290,213,479,269,832,841,801,1
795,341,198,483,258,782,821,797,1
770,334,177,530,252,838,870,768,1
856,340,204,651,285,857,894,780,1
858,318,192,667,260,870,860,686,1
784,301,216,652,247,730,842,704,1
828,259,311,772,276,838,795,773,1
837,260,322,729,276,854,892,789,1
867,257,320,752,298,867,836,879,1
928,269,336,800,306,955,911,908,1
983,289,325,783,334,980,911,898,1
996,426,251,729,336,862,951,964,1
1015,444,265,790,376,812,842,974,1
927,437,287,765,338,802,874,824,1
896,437,267,702,337,691,797,781,1
815,427,259,723,320,731,821,836,1
748,306,280,755,329,779,792,744,1
735,287,252,734,300,862,790,778,1
824,336,231,659,362,931,856,868,1
896,412,267,699,402,1006,1002,986,1
1039,470,317,887,471,1117,1084,1024,1
1155,484,302,814,454,1114,1114,1036,1
1139,477,295,778,440,1062,1083,991,1
1074,472,281,795,401,959,969,873,1
1029,443,259,781,428,992,866,855,1
915,403,263,620,401,862,768,788,1
707,404,250,641,388,791,690,679,1
747,411,272,700,413,807,709,727,1
781,393,279,691,416,850,800,784,1
898,386,317,739,348,771,779,762,1
975,417,268,767,303,796,721,778,1
1042,391,271,745,307,839,738,906,1
1167,467,299,728,324,868,812,1049,1
1211,509,296,715,297,859,876,1132,1
1116,529,268,678,348,933,1003,1188,1
1056,493,291,732,365,933,1104,1204,1
1008,481,288,728,371,920,1082,1126,1
922,405,257,772,344,917,1052,1051,1
847,384,277,821,367,903,974,1043,1
821,333,274,810,335,921,1009,916,1
813,347,238,646,317,1041,935,854,1
834,362,280,712,299,1051,1021,901,1
695,348,283,693,292,1003,1003,798,1
715,323,265,683,260,1042,1075,662,1
739,344,251,657,224,932,924,688,1
663,321,265,729,185,729,908,720,1
651,316,270,679,202,673,844,647,1
703,365,275,699,206,736,847,669,1
650,357,271,663,207,692,766,646,1
692,364,273,680,221,669,839,631,1
775,383,295,640,233,771,799,614,1
719,367,252,648,229,856,814,754,1
805,316,256,688,214,841,824,705,1
841,306,249,675,245,861,854,728,1
813,259,282,755,273,926,842,732,1
877,326,307,745,278,902,910,772,1
896,346,311,757,259,837,849,648,1
740,355,286,631,260,851,825,651,1
696,349,318,689,230,789,737,630,1
674,360,280,582,175,676,620,561,1
476,260,205,535,137,519,458,388,1
435,224,187,465,128,465,437,316,1
462,197,191,507,105,307,356,281,1
451,163,123,429,94,365,388,383,1
455,112,128,403,111,434,417,445,1
591,133,183,527,171,571,573,600,1
683,269,201,551,229,731,754,753,1
765,355,204,520,231,829,922,847,1
838,369,215,540,249,815,914,826,1
928,386,278,685,305,856,991,930,1
985,427,260,650,331,909,1043,995,1
994,390,254,648,305,865,1048,916,1
1001,334,258,746,345,840,1048,947,1
981,347,265,763,377,949,1180,1117,1
885,344,199,656,348,1018,1261,1075,1
911,352,185,607,323,1030,1293,1062,1
946,344,190,658,338,1102,1272,1136,1
905,367,191,610,308,1094,1194,1062,1
930,407,241,637,275,1030,1121,936,1
956,451,253,636,271,1029,1034,1020,1
884,458,334,719,280,983,973,985,1
913,467,356,692,282,962,986,977,1
949,513,382,671,320,1053,1036,1045,1
931,468,347,618,325,1046,1055,1013,1
976,509,389,728,403,1012,990,963,1
1073,476,340,716,441,1070,952,996,1
968,467,314,683,429,961,899,939,1
1001,415,280,688,435,963,924,945,1
1003,515,323,807,515,1044,890,980,1
1107,541,300,732,474,1101,928,1013,1
983,551,281,685,428,1011,934,993,1
1009,552,279,720,423,1043,937,991,1
1040,560,274,718,415,1000,919,1011,1
1059,485,252,604,359,967,904,995,1
946,382,241,594,338,963,994,895,1
991,367,235,601,352,976,1008,916,1
1046,356,244,621,352,1020,996,966,1
1007,343,244,685,332,954,918,957,1
1017,333,252,696,287,970,943,959,1
1001,311,228,746,301,867,891,1028,1
983,335,228,732,270,937,858,975,1
877,329,217,697,271,871,847,894,1
872,293,222,644,255,882,885,839,1
776,287,185,638,218,766,825,763,1
811,334,251,619,214,766,786,778,1
769,300,259,620,212,636,731,724,1
809,359,256,606,216,722,715,716,1
746,365,260,584,225,718,691,669,1
795,369,251,574,253,723,702,702,1
744,328,186,571,327,717,615,580,1
686,318,177,568,345,714,572,558,1
713,241,184,567,364,697,607,616,1
730,278,211,595,358,764,625,624,1
677,282,216,618,341,770,596,596,1
652,271,219,576,250,787,643,536,1
757,290,299,675,226,818,756,523,1
826,334,302,685,182,777,735,504,1
868,312,284,667,203,779,816,474,1
879,309,280,641,204,818,843,500,1
962,348,297,755,271,825,853,621,1
976,372,218,665,276,897,837,703,1
894,333,228,666,320,953,921,780,1
862,322,262,708,312,910,879,872,1
906,321,264,669,322,897,893,902,1
906,368,278,564,276,874,904,916,1
814,347,284,558,282,775,864,917,1
811,370,284,637,289,722,821,882,1
736,374,242,543,281,738,774,782,1
662,363,247,605,267,704,704,710,1
121,171,240,619,998,658,211,262,2
131,174,241,600,1062,605,213,325,2
154,192,273,641,1064,628,231,360,2
137,157,207,576,966,665,202,353,2
141,158,215,560,1032,678,197,376,2
158,151,228,604,1137,675,254,430,2
182,218,293,673,1119,737,317,388,2
175,207,272,701,1145,723,307,421,2
184,227,297,692,1096,702,308,424,2
182,226,301,718,1057,705,306,402,2
161,230,292,686,1048,671,265,346,2
120,165,247,651,1024,681,176,320,2
109,186,300,624,1004,704,185,312,2
103,178,298,623,1067,703,212,302,2
116,197,327,632,1073,691,221,305,2
112,194,321,657,1021,685,220,327,2
121,196,362,622,1043,631,231,337,2
135,226,414,683,1092,644,230,336,2
133,217,425,737,1121,658,227,326,2
146,226,420,794,1197,715,235,329,2
148,227,428,773,1197,797,236,325,2
145,241,416,833,1207,822,251,354,2
156,210,328,800,1150,835,264,387,2
152,221,297,758,1073,848,235,422,2
130,204,293,658,941,802,225,419,2
135,219,310,625,948,762,243,428,2
138,213,262,586,907,806,219,438,2
110,212,324,599,905,795,224,365,2
107,204,363,584,904,782,240,342,2
106,213,362,675,1036,816,244,350,2
98,215,345,715,1075,788,230,374,2
96,212,358,716,1080,764,237,329,2
101,221,366,712,1095,716,206,353,2
113,226,345,759,1151,847,231,354,2
121,219,342,747,1104,874,254,363,2
136,249,393,777,1075,925,254,320,2
147,248,394,749,1072,885,249,351,2
155,263,361,709,1068,922,280,374,2
150,280,396,715,1102,856,266,357,2
160,296,425,685,1109,861,246,354,2
153,280,381,638,1091,780,248,345,2
142,274,366,622,1100,768,250,345,2
134,261,343,655,1073,738,210,330,2
145,247,306,617,1022,670,186,322,2
130,232,243,586,993,692,187,297,2
125,210,242,596,970,685,166,304,2
121,233,263,610,951,711,155,270,2
115,223,246,563,975,724,165,247,2
91,223,222,500,917,729,176,242,2
82,213,214,516,895,704,178,251,2
87,243,266,544,872,767,209,253,2
92,244,264,569,841,763,218,241,2
89,229,274,573,854,768,253,265,2
100,222,278,616,998,765,258,292,2
117,264,296,625,1114,701,262,288,2
117,237,236,574,1145,710,239,287,2
112,221,235,662,1191,695,255,283,2
109,242,252,682,1169,650,221,236,2
131,274,300,735,1183,761,289,250,2
122,255,296,748,1116,783,294,257,2
120,254,349,737,1160,781,296,263,2
118,252,339,619,1087,760,288,278,2
122,243,324,588,1063,753,282,304,2
120,228,312,563,997,686,301,324,2
158,285,358,565,1005,741,376,360,2
158,287,316,569,940,709,376,348,2
167,289,313,568,967,762,383,405,2
175,296,361,715,1141,867,421,408,2
183,312,400,769,1179,922,447,386,2
162,261,388,811,1179,899,384,357,2
177,264,397,859,1198,881,399,487,2
183,275,407,886,1224,867,397,459,2
182,293,391,888,1178,855,380,439,2
159,265,323,824,1127,747,283,421,2
148,243,270,746,1046,738,302,562,2
150,252,297,723,1030,763,320,478,2
170,248,333,755,1130,813,369,504,2
165,217,303,649,1116,780,355,510,2
162,196,286,588,1035,816,345,528,2
176,205,306,613,1026,800,364,446,2
165,195,255,598,1053,806,334,458,2
146,207,291,668,969,769,308,486,2
156,221,291,698,873,733,312,499,2
170,226,307,751,973,769,324,526,2
167,235,314,766,1060,790,277,483,2
169,249,333,792,1018,772,269,469,2
157,250,266,713,1002,750,213,380,2
148,245,286,708,1032,726,207,369,2
141,256,288,687,961,685,198,327,2
155,261,294,698,989,668,217,351,2
156,256,290,741,1099,741,263,358,2
157,251,305,778,1112,786,288,383,2
164,239,281,762,1095,820,282,410,2
161,259,270,786,1164,810,282,428,2
134,259,244,810,1091,793,261,379,2
126,244,240,816,983,751,237,410,2
120,220,198,743,967,700,218,408,2
125,219,196,755,1000,684,235,403,2
127,183,196,730,1043,703,226,384,2
127,161,188,657,1087,742,240,403,2
172,268,219,607,1177,755,238,407,2
184,283,230,669,1179,822,282,524,2
175,284,247,682,1147,900,275,523,2
179,291,278,719,1046,869,282,537,2
195,302,298,859,1030,891,303,543,2
171,236,262,844,932,847,300,521,2
165,213,252,836,949,810,250,409,2
162,212,270,900,977,759,240,441,2
168,192,257,927,1055,832,270,419,2
158,192,269,890,1059,845,252,413,2
155,185,285,914,1179,949,238,407,2
153,190,287,929,1208,982,265,432,2
158,232,279,913,1211,967,272,368,2
151,260,315,946,1183,957,271,361,2
153,258,317,931,1210,888,284,366,2
140,261,330,906,1087,832,301,375,2
134,266,345,926,1062,817,278,357,2
135,243,331,842,1044,840,286,401,2
132,262,302,833,1043,867,267,390,2
136,283,314,860,1023,917,241,379,2
139,276,289,839,1066,903,284,453,2
141,294,298,828,1045,912,295,469,2
156,289,308,870,1086,915,332,488,2
156,300,312,767,1087,857,333,502,2
145,268,286,791,1055,852,351,587,2
156,284,309,868,1092,835,322,553,2
222,282,309,917,1153,858,384,635,2
216,282,302,921,1174,877,369,600,2
219,237,304,978,1212,881,386,617,2
219,237,297,904,1302,904,385,536,2
209,194,262,826,1233,905,369,517,2
143,171,236,786,1142,909,352,443,2
147,196,251,823,1169,912,356,448,2
140,178,226,806,1120,916,337,449,2
140,188,234,790,998,902,344,474,2
151,211,253,830,1045,911,354,451,2
146,198,244,763,1094,883,295,421,2
131,164,219,671,1025,875,257,410,2
127,169,221,656,1030,879,246,392,2
133,157,237,738,1146,902,248,447,2
132,161,278,759,1194,937,272,462,2
143,186,313,844,1241,910,306,462,2
153,192,333,877,1244,915,325,532,2
184,225,370,912,1318,918,343,533,2
197,243,378,897,1239,879,340,500,2
196,228,346,848,1198,894,316,507,2
194,217,336,799,1211,916,311,500,2
186,211,320,807,1211,863,304,430,2
163,166,264,778,1159,843,291,491,2
137,124,226,691,1176,801,265,469,2
127,125,212,694,1199,725,256,443,2
123,120,213,700,1176,622,233,440,2
142,128,221,678,1199,650,255,488,2
132,133,218,621,1150,689,250,406,2
131,133,211,658,1102,743,236,381,2
160,178,309,730,1151,786,339,413,2
163,173,285,732,1151,826,360,406,2
145,162,274,667,1079,811,359,398,2
142,162,276,673,1033,730,357,409,2
157,194,305,766,1101,712,427,435,2
125,161,231,706,1087,695,377,393,2
123,183,249,688,1068,662,363,463,2
129,189,261,814,1069,633,340,417,2
138,205,284,878,1175,670,343,409,2
137,187,270,814,1218,697,315,400,2
144,180,280,914,1152,747,295,440,2
144,161,265,932,1071,796,310,425,2
149,159,267,890,1085,823,355,453,2
158,153,281,907,1091,842,379,462,2
164,155,286,947,1118,784,368,470,2
192,168,294,899,1199,753,397,510,2
195,192,323,905,1290,824,397,438,2
186,194,318,878,1348,842,360,411,2
185,197,314,883,1298,871,331,391,2
174,200,299,861,1237,902,294,400,2
156,211,285,821,1165,913,278,371,2
156,220,261,804,1175,877,278,422,2
166,243,270,801,1156,860,300,444,2
179,258,294,816,1140,793,314,493,2
231,281,343,768,1116,840,349,516,2
244,294,392,859,1264,818,415,557,2
248,289,395,855,1247,834,403,525,2
247,273,401,905,1298,877,416,512,2
234,276,387,850,1352,927,406,479,2
177,245,339,838,1312,889,382,468,2
152,225,279,727,1159,863,287,384,2
138,232,266,743,1129,872,287,394,2
146,265,291,758,1055,796,255,370,2
144,238,282,703,936,756,246,350,2
160,243,293,715,1003,770,256,386,2
143,221,271,691,1001,780,249,382,2
147,208,279,650,1057,704,244,448,2
127,150,228,538,983,712,227,445,2
127,159,217,609,1034,775,238,502,2
111,142,202,570,1044,754,228,439,2
137,184,242,633,1031,765,242,428,2
128,166,230,599,928,722,239,371,2
136,178,296,682,1019,830,347,405,2
140,186,296,670,1082,818,362,339,2
140,219,319,728,1037,880,374,324,2
125,202,314,701,1032,865,382,304,2
131,216,348,759,1023,874,374,261,2
125,213,305,750,1007,819,286,222,2
132,218,287,707,934,829,281,378,2
130,205,266,655,974,717,265,395,2
136,210,294,793,1071,767,270,418,2
136,211,279,832,1171,792,294,437,2
136,217,278,819,1195,772,295,436,2
177,221,304,879,1267,831,303,372,2
351,239,313,919,1256,856,328,391,2
367,221,290,814,1190,814,315,423,2
385,240,289,766,1082,817,318,435,2
394,259,298,744,1054,816,333,442,2
370,245,277,669,922,708,312,437,2
216,221,269,639,886,706,288,417,2
177,229,241,585,832,649,269,365,2
133,188,206,516,905,677,250,344,2
131,174,210,533,1072,724,265,371,2
137,168,198,519,1124,686,252,324,2
172,201,244,515,1194,702,326,317,2
173,197,237,510,1245,755,330,327,2
167,200,248,542,1181,679,327,334,2
150,191,224,475,949,662,283,292,2
163,219,278,525,943,769,319,304,2
125,187,245,502,861,720,241,289,2
138,189,256,587,791,681,235,278,2
317,187,254,592,859,746,243,276,2
335,184,256,633,988,774,280,272,2
328,153,218,676,1112,794,266,242,2
331,171,232,752,1157,885,297,251,2
339,176,236,716,1146,929,317,329,2
188,182,240,733,1171,974,325,313,2
158,184,244,755,1161,992,335,327,2
161,199,240,748,1094,911,345,344,2
153,173,208,644,1045,831,326,383,2
123,169,200,690,1092,820,306,340,2
122,162,186,665,1035,737,280,326,2
130,168,243,654,1075,651,289,323,2
118,152,235,564,999,665,248,296,2
118,165,240,600,981,708,235,240,2
116,161,231,496,925,680,241,188,2
117,172,249,562,1028,708,284,225,2
102,166,191,549,986,716,232,205,2
105,156,192,557,967,682,233,248,2
103,141,191,535,1019,682,243,255,2
106,133,195,557,1034,740,233,278,2
96,116,172,507,946,678,185,255,2
95,101,174,498,970,616,199,267,2
89,93,162,482,1018,603,205,244,2
85,100,155,465,944,527,177,239,2
83,110,164,468,936,404,188,227,2
95,136,214,506,1017,561,242,235,2
86,133,208,451,928,605,222,205,2
95,136,214,465,913,608,241,209,2
98,140,217,465,904,623,248,232,2
102,139,212,472,990,690,261,232,2
92,120,165,448,980,648,213,222,2
97,134,147,428,996,624,217,233,2
106,137,147,467,1030,652,197,242,2
106,139,157,505,1099,679,196,231,2
101,141,153,478,1034,622,164,228,2
97,138,147,461,961,536,172,235,2
96,156,164,512,984,544,164,232,2
99,179,194,595,1018,604,195,250,2
96,171,189,626,1065,661,237,300,2
95,175,196,652,1050,684,236,304,2
99,171,190,641,1138,720,232,317,2
99,147,182,628,1122,747,241,317,2
88,145,157,558,1159,815,241,312,2
87,148,156,532,1085,767,209,276,2
94,137,153,543,1118,765,213,268,2
95,172,157,505,1042,742,216,268,2
94,173,155,505,1016,772,207,282,2
91,154,147,491,969,650,178,275,2
103,189,159,464,1053,734,185,257,2
102,192,158,413,1055,762,187,282,2
139,221,245,561,1081,816,273,286,2
165,233,284,776,1288,825,387,302,2
171,253,317,852,1316,861,414,295,2
166,234,317,858,1250,793,431,316,2
164,228,317,864,1227,803,441,302,2
148,191,283,860,1274,865,422,328,2
120,179,242,682,1146,893,325,301,2
113,163,203,664,1116,908,294,294,2
116,173,206,674,1141,930,281,294,2
134,208,263,769,1255,959,317,333,2
135,230,261,736,1194,940,326,305,2
145,249,269,802,1140,919,372,317,2
166,251,308,786,1155,888,399,333,2
169,254,313,855,1183,882,436,308,2
166,266,309,931,1124,906,413,270,2
161,261,325,979,1180,874,421,260,2
190,266,367,1022,1211,929,420,307,2
177,259,355,1012,1115,970,412,345,2
196,308,366,983,1163,937,381,370,2
194,305,350,885,1199,869,392,358,2
192,306,329,891,1185,884,361,348,2
178,307,317,902,1271,858,357,321,2
