5,66,46,75,50,64,91,75,28
5,57,43,64,43,62,77,74,28
5,52,36,55,42,55,73,79,30
5,42,33,44,39,52,73,83,30
5,30,22,44,37,49,82,85,27
5,29,21,46,37,49,92,82,29
5,28,19,45,39,55,99,71,27
5,27,19,43,37,53,96,52,25
5,22,20,37,34,54,89,37,24
5,20,21,32,36,52,82,25,22
5,17,20,27,34,54,67,27,21
5,17,20,27,30,47,49,31,24
5,16,19,27,32,62,41,33,22
5,16,17,26,35,59,36,35,21
5,16,16,21,30,61,29,35,21
5,18,17,23,38,58,28,34,21
6,19,17,23,41,59,57,34,21
6,18,21,26,40,53,58,32,21
6,20,21,26,38,59,59,28,21
6,19,23,28,46,63,60,27,24
6,20,23,28,49,66,60,25,22
6,21,25,26,52,67,39,25,22
6,23,21,23,53,67,45,22,23
6,22,20,22,53,68,49,27,23
6,21,18,21,46,70,50,27,21
6,20,18,19,38,69,49,27,22
6,19,18,21,38,93,57,29,20
6,19,20,23,37,95,52,29,20
6,21,22,25,43,96,48,29,20
6,21,22,25,50,101,46,29,20
6,22,23,26,55,117,50,30,21
6,23,22,26,56,109,42,27,23
6,22,21,25,56,115,41,26,23
6,21,21,25,58,142,42,25,22
6,22,22,26,54,142,40,26,23
6,21,21,27,50,139,40,28,21
6,20,23,26,56,134,38,28,20
6,23,22,28,59,127,44,28,19
6,24,21,27,56,99,46,30,20
6,24,19,28,60,93,50,29,22
6,22,18,26,60,74,47,27,23
6,20,16,25,54,69,49,30,24
6,23,20,21,52,68,43,29,24
6,30,47,22,49,70,42,27,24
6,35,49,21,49,66,47,28,22
6,36,50,22,54,68,56,29,23
6,39,50,22,55,69,56,31,23
6,38,49,25,65,72,65,35,22
6,33,28,24,67,80,69,36,23
6,28,25,22,63,79,63,35,23
6,27,24,23,58,87,58,35,22
6,25,23,24,55,90,58,30,21
6,21,23,21,42,93,55,30,22
6,20,19,25,39,79,52,31,21
6,20,20,25,42,78,52,33,21
6,22,20,27,45,89,54,33,22
6,23,23,27,46,85,50,35,23
6,28,24,29,48,80,54,33,25
6,28,26,27,47,81,55,30,27
6,29,23,26,46,87,58,29,28
6,27,22,23,42,80,55,31,27
6,26,20,24,50,80,60,29,26
6,22,20,24,48,75,49,29,27
6,21,17,21,52,84,46,33,27
6,18,19,24,52,78,46,33,27
6,19,19,25,54,63,44,30,28
6,20,22,25,51,61,42,28,30
6,19,20,25,54,65,46,28,27
6,19,20,26,53,58,44,22,25
6,19,19,26,53,68,44,23,24
7,18,20,28,52,72,45,24,22
7,16,16,27,46,82,40,28,19
7,16,16,27,41,81,39,28,19
7,17,19,27,38,74,39,32,22
7,19,19,25,36,76,54,31,21
7,20,19,22,36,80,57,32,22
7,22,22,22,39,71,57,33,22
7,21,22,20,42,72,57,34,23
7,21,20,21,41,71,58,31,21
7,19,18,21,43,64,45,34,23
7,20,19,21,42,61,46,34,24
7,18,17,23,50,62,48,31,24
7,20,17,22,47,61,46,29,25
7,19,18,20,50,61,50,27,27
7,19,19,21,48,62,46,22,28
7,20,21,22,51,59,46,18,26
7,20,20,18,43,57,47,21,25
7,20,20,23,44,63,67,23,25
7,22,22,25,47,67,68,27,23
7,23,21,25,47,66,68,30,19
7,23,24,26,44,63,68,33,20
7,24,25,27,43,67,71,32,22
7,20,25,23,41,66,60,33,21
7,19,23,25,38,71,59,34,24
7,20,24,25,36,65,60,37,27
7,18,22,25,43,83,58,39,27
7,17,24,24,48,85,54,40,28
7,18,24,25,50,81,48,40,28
7,18,24,23,55,82,45,37,24
7,15,23,21,57,87,52,34,22
7,15,22,22,52,72,57,33,23
7,14,17,23,46,68,60,31,23
7,14,19,24,47,70,61,29,23
7,17,18,24,37,70,67,29,27
7,17,19,25,39,65,62,28,27
7,17,20,24,41,89,59,27,27
7,18,21,27,40,90,60,28,25
7,20,19,33,47,104,58,29,29
7,19,20,36,51,100,51,31,27
7,22,19,34,50,99,53,33,29
7,23,19,34,47,77,65,32,29
7,23,19,33,50,79,61,31,28
7,22,21,27,40,56,67,32,24
7,23,22,24,43,63,70,32,22
7,21,23,25,43,64,70,29,21
7,21,24,27,48,84,57,29,21
7,24,24,27,47,85,65,28,23
7,25,24,29,48,87,60,30,24
7,27,22,28,42,81,58,29,28
8,27,21,26,41,80,54,28,27
8,26,18,23,43,65,53,28,26
8,22,19,21,45,73,45,31,24
8,21,18,20,49,76,48,28,24
8,17,18,23,53,79,46,28,21
8,16,20,24,57,79,48,32,22
8,22,21,23,59,79,48,33,24
8,22,19,25,59,66,45,32,25
8,22,25,25,61,62,41,32,25
8,24,39,25,59,60,41,31,23
8,24,40,24,60,59,51,30,24
8,17,40,26,56,52,54,31,21
8,17,41,26,59,51,57,31,25
8,17,37,26,54,56,64,33,24
8,14,23,27,54,53,66,34,24
8,14,24,29,46,54,64,31,25
8,18,26,27,46,62,64,30,25
8,20,25,28,44,62,63,31,25
8,21,26,25,51,56,56,29,25
8,20,25,21,61,70,52,27,25
8,20,21,19,68,72,63,30,23
8,19,18,20,66,67,61,29,24
8,17,16,17,63,68,63,25,21
8,16,16,19,64,69,63,24,21
8,15,18,22,60,56,63,26,20
8,15,18,21,54,51,47,26,20
8,13,19,21,55,47,50,27,18
8,13,22,21,62,47,48,30,18
8,15,22,20,61,52,49,30,18
8,17,21,17,58,54,54,30,20
8,18,19,18,57,78,56,33,23
8,19,18,19,60,88,56,32,22
8,19,16,22,57,90,61,31,22
8,19,17,24,51,86,58,34,22
8,20,15,24,49,86,54,33,23
8,19,16,26,48,69,56,27,20
8,19,19,25,46,62,74,26,22
8,21,18,23,44,59,72,24,23
8,20,18,22,55,66,72,22,23
8,19,23,22,67,68,74,24,21
8,20,23,21,69,68,88,26,22
8,21,21,21,70,64,71,28,22
8,20,23,22,67,67,69,28,23
8,20,22,22,61,64,76,27,23
8,22,18,23,54,63,78,26,24
8,22,21,25,54,62,59,27,22
8,22,22,25,51,67,68,25,23
8,22,20,26,55,69,68,29,22
8,21,21,25,50,68,63,33,21
8,21,22,24,42,78,61,32,21
8,20,19,24,53,77,67,31,23
9,19,18,22,53,78,60,32,21
9,20,21,26,51,72,60,29,22
9,21,20,28,58,77,59,27,25
9,21,19,28,60,64,70,29,26
9,20,20,26,51,63,66,29,27
9,21,21,30,50,54,65,31,27
9,20,18,25,46,53,63,31,27
9,18,19,22,38,43,62,32,24
9,17,19,23,34,45,50,33,25
9,17,16,22,31,51,48,33,23
9,16,20,17,36,54,47,33,23
9,18,20,17,38,61,56,33,25
9,19,20,26,50,69,59,33,26
9,20,20,29,53,87,57,33,23
9,21,21,29,53,87,56,33,24
9,21,16,30,50,88,63,35,24
9,19,15,31,54,94,67,35,22
9,17,15,27,46,94,62,37,20
9,17,16,25,49,81,66,36,18
9,16,15,28,48,91,66,37,19
9,15,20,28,53,104,57,34,22
9,18,21,28,48,101,45,37,24
9,19,21,30,43,111,55,32,25
9,19,23,28,37,111,51,30,27
9,19,23,25,46,106,56,26,27
9,22,20,26,42,94,62,26,26
9,19,18,26,44,92,73,24,24
9,19,18,22,45,74,75,28,25
9,17,14,22,45,65,73,30,24
9,18,13,26,40,64,70,32,25
9,15,14,26,38,63,67,34,24
9,16,15,25,38,60,66,34,25
9,16,14,27,41,62,60,33,25
9,16,16,27,46,62,61,33,24
9,17,20,28,49,60,63,35,23
9,17,22,26,49,59,61,32,23
9,18,22,27,48,64,47,33,21
9,18,25,26,54,59,47,34,20
9,18,24,27,53,63,54,33,20
9,18,23,26,48,70,52,33,22
9,18,20,28,47,77,52,35,21
9,16,21,27,53,81,57,32,23
9,14,19,26,52,88,60,32,25
9,15,22,26,58,87,58,31,27
9,17,20,23,64,81,58,30,25
9,19,22,24,67,77,68,29,27
9,19,22,26,67,72,67,30,26
9,20,22,25,67,86,62,29,24
9,20,23,26,68,83,58,31,23
9,20,25,26,67,83,68,28,23
10,20,24,28,67,93,60,27,23
10,22,24,26,67,90,62,27,24
10,21,23,27,72,72,67,25,24
10,20,19,26,69,75,69,29,25
10,18,18,25,68,73,64,31,24
10,15,17,22,65,58,69,33,22
10,16,17,24,63,57,70,32,21
10,16,18,23,51,55,66,32,22
10,16,19,23,56,58,64,30,24
10,17,18,24,56,59,60,30,23
10,18,22,24,55,54,53,28,24
10,18,21,24,56,54,47,27,23
10,17,21,25,60,56,49,29,22
10,19,21,24,47,56,53,32,18
10,18,20,23,45,55,59,33,19
10,17,17,24,49,70,58,34,19
10,16,17,24,48,72,67,38,20
10,18,17,26,44,71,71,39,20
10,19,16,26,43,71,76,35,21
10,21,16,26,42,72,78,35,22
10,22,16,24,43,65,81,34,21
10,22,19,24,43,64,89,32,20
10,23,18,24,52,71,88,31,20
10,22,18,24,74,75,86,34,21
10,21,19,26,74,75,83,33,22
10,20,20,27,78,72,87,35,25
10,26,21,34,124,86,109,43,28
10,36,33,60,140,145,134,99,46
10,79,50,76,191,187,171,130,104
10,121,63,94,266,209,211,232,149
10,170,84,113,505,244,273,302,170
10,206,90,127,535,334,273,343,187
10,218,94,120,544,317,269,368,218
10,222,95,128,556,301,262,415,231
10,249,104,128,551,312,248,399,229
10,233,97,130,397,305,236,382,245
10,217,97,140,405,237,235,401,245
10,215,93,150,417,255,251,451,236
10,244,103,149,441,260,253,432,272
10,225,94,142,443,240,247,454,284
10,249,95,156,451,241,223,467,293
10,298,105,143,433,229,239,492,324
10,322,109,138,477,245,260,454,328
10,315,97,135,549,256,295,469,285
10,332,103,150,626,268,296,462,287
10,318,102,145,673,273,283,469,267
10,270,92,159,721,266,287,452,238
10,301,103,167,761,277,290,465,267
10,356,140,172,709,275,313,439,305
10,342,136,172,659,273,330,482,279
11,351,140,162,585,254,342,466,287
11,406,154,153,502,256,334,432,291
11,365,145,161,380,213,315,399,247
11,313,110,173,455,205,250,417,214
11,320,107,180,416,184,227,358,231
11,319,102,173,453,182,207,336,218
11,240,77,168,461,176,203,348,195
11,238,85,156,457,160,205,408,188
11,213,83,138,323,135,247,392,159
11,184,81,113,313,129,245,376,145
11,166,74,111,245,129,258,389,139
11,166,70,111,227,108,249,389,140
11,169,67,108,210,120,230,323,153
11,173,76,99,231,144,185,306,158
11,177,88,112,214,152,208,306,160
11,161,90,115,215,146,183,284,144
11,161,91,110,211,141,190,270,151
11,144,80,100,204,149,194,273,139
11,127,73,103,173,131,198,277,133
11,96,57,88,177,123,167,275,109
11,88,49,78,166,127,169,279,103
11,86,53,81,163,128,176,277,83
11,96,56,85,163,114,185,281,86
11,100,59,79,185,111,176,285,85
11,96,56,79,188,118,182,264,86
11,108,60,80,206,114,216,251,93
11,123,57,74,204,131,207,229,99
11,123,60,70,207,125,196,215,93
11,124,63,65,178,134,215,198,86
11,138,68,69,202,149,219,193,97
11,137,65,70,172,149,180,179,93
11,125,64,72,192,133,186,188,94
11,116,59,73,189,135,185,167,97
11,107,46,74,197,124,156,201,100
11,91,37,66,164,104,157,257,105
11,83,37,67,190,95,160,270,109
11,71,34,64,169,91,148,259,98
11,70,35,60,195,107,146,259,93
11,63,41,61,187,106,161,227,85
11,65,48,68,206,107,152,213,66
11,71,49,70,182,123,171,213,62
11,76,53,95,214,138,181,214,68
11,80,54,99,199,146,183,248,79
11,91,51,118,239,150,178,266,90
11,109,46,131,253,150,193,252,92
11,124,53,135,267,184,188,273,98
11,133,54,130,296,215,179,267,107
11,138,56,135,301,211,175,286,107
11,137,54,122,282,223,161,283,104
11,150,60,106,305,230,152,280,115
12,141,54,105,300,199,148,264,116
12,142,51,90,266,175,160,282,111
12,146,51,90,271,173,166,231,107
12,160,56,89,285,169,171,251,122
12,135,52,111,260,170,159,276,120
12,126,57,109,268,208,175,285,114
12,129,53,114,272,198,184,278,122
12,125,51,105,281,201,188,285,125
12,111,53,114,274,207,190,267,123
12,120,56,94,251,220,212,284,122
12,140,61,96,257,195,213,289,121
12,128,66,107,324,224,204,315,110
12,125,72,122,390,233,223,357,108
12,133,73,116,393,230,231,364,93
12,143,83,137,411,230,237,365,102
12,135,85,141,421,234,224,366,116
12,139,84,134,374,217,228,343,119
12,168,91,129,347,204,234,292,141
12,180,95,131,351,238,239,286,148
12,189,91,110,369,224,213,241,150
12,198,90,110,359,230,213,231,150
12,200,90,111,380,218,217,234,160
12,197,81,121,343,213,181,293,164
12,180,72,115,349,160,165,307,162
12,161,71,118,313,151,184,335,149
12,143,65,111,299,123,200,327,137
12,142,63,108,258,130,199,339,127
12,119,58,91,248,130,203,314,108
12,112,53,95,226,133,205,285,99
12,115,46,83,218,131,186,260,105
12,117,45,77,208,139,189,296,112
12,110,42,74,192,138,169,286,116
12,103,47,63,174,136,174,261,105
12,108,50,73,149,131,186,262,109
12,95,45,80,137,128,193,241,103
12,91,41,83,134,107,183,181,92
12,101,45,97,145,95,183,191,88
12,113,45,101,159,92,181,203,111
12,117,52,93,154,90,174,244,124
12,119,55,89,181,96,195,245,122
12,119,58,88,206,106,189,262,124
12,122,60,84,209,109,197,253,125
12,116,59,79,200,111,200,239,108
12,128,63,85,235,132,193,204,98
12,135,62,90,222,143,169,238,98
12,142,60,91,219,151,165,227,99
12,135,63,87,218,154,153,259,102
12,136,68,94,216,171,136,292,93
12,117,60,97,187,163,140,307,94
12,116,62,106,179,168,148,316,111
13,123,61,103,158,154,171,318,121
13,120,55,100,157,160,169,291,114
13,121,57,112,160,150,175,260,121
13,121,55,100,147,145,176,231,123
13,112,52,87,157,132,176,181,108
13,103,63,110,193,186,200,214,101
13,107,63,116,202,184,202,239,98
13,99,53,106,217,194,204,257,92
13,128,54,115,240,238,201,304,97
13,153,53,116,237,250,205,353,114
13,157,42,96,209,244,165,396,136
13,167,46,101,236,245,173,447,141
13,196,59,123,250,238,189,443,155
13,182,65,131,231,189,199,441,147
13,182,69,136,277,180,190,400,143
13,268,90,137,280,171,203,382,182
13,278,90,135,243,167,197,302,187
13,270,84,113,230,170,183,355,194
13,277,86,103,268,176,182,406,195
13,265,85,136,251,178,239,462,206
13,176,62,135,249,151,232,424,155
13,153,60,133,258,148,271,428,142
13,157,71,134,252,146,304,403,128
13,146,66,126,209,174,311,383,140
13,153,69,83,194,186,271,338,120
13,156,73,82,207,184,273,345,132
13,169,73,74,216,194,240,330,143
13,151,63,80,233,196,210,319,141
13,163,64,91,273,207,205,259,135
13,162,60,88,265,209,208,288,136
13,172,62,91,253,215,217,280,137
13,162,66,111,250,203,245,295,137
13,155,64,111,225,203,246,284,129
13,140,65,124,214,175,254,276,121
13,145,69,126,230,177,275,224,131
13,126,64,139,258,173,284,258,120
13,117,63,123,270,191,291,274,115
13,126,72,126,332,202,298,293,119
13,125,71,115,313,200,313,296,122
13,125,71,119,306,206,294,307,119
13,123,82,160,351,202,280,282,120
13,125,80,159,345,209,264,262,116
13,127,74,152,296,194,249,261,132
13,133,71,151,298,210,217,280,131
13,125,66,158,305,182,256,280,124
13,120,49,99,249,231,257,283,118
13,129,57,104,247,216,262,348,138
13,117,60,104,268,226,271,360,128
13,104,60,103,312,223,273,340,125
13,109,67,99,305,225,244,360,138
14,111,71,117,307,194,237,377,144
14,99,66,118,297,197,213,324,124
14,105,69,139,272,203,234,311,128
14,137,74,163,217,192,237,318,144
14,137,69,163,218,204,240,297,128
14,140,69,158,198,201,254,271,129
14,141,70,165,206,204,262,272,138
14,142,69,163,193,193,239,301,132
14,132,64,154,223,183,232,305,131
14,125,61,145,209,170,228,282,133
14,117,58,135,201,197,233,274,124
14,150,106,139,206,209,211,259,129
14,345,245,123,212,252,188,181,160
14,424,312,163,247,383,200,153,210
14,539,359,192,304,559,224,162,280
14,685,376,226,384,628,289,174,361
14,682,370,220,383,668,315,156,381
14,610,303,220,385,657,331,153,375
14,566,243,194,343,609,317,142,352
14,460,172,182,305,503,336,121,301
14,189,138,149,207,450,332,88,201
14,174,121,143,198,392,316,86,146
14,159,102,140,193,391,314,70,120
14,104,72,115,192,392,312,63,121
14,87,57,83,174,361,261,53,124
14,69,49,62,164,338,155,50,130
14,72,51,64,156,368,136,57,144
14,73,60,70,166,394,105,61,158
14,70,63,73,168,446,122,63,135
14,71,66,74,172,450,126,61,130
14,66,64,73,165,430,129,64,133
14,55,58,69,163,406,134,60,123
14,48,47,57,153,377,132,56,107
14,50,43,49,166,327,123,54,101
14,42,38,46,155,298,123,50,95
14,36,34,43,137,282,125,45,73
14,37,32,45,129,282,120,43,57
14,40,35,47,127,305,113,38,54
14,35,35,52,90,289,104,39,61
14,37,34,54,90,338,103,39,77
14,36,29,52,92,329,111,38,73
14,34,31,52,108,344,107,37,75
14,29,28,51,103,325,112,39,73
14,32,32,52,103,335,110,40,68
14,31,32,52,117,288,100,35,61
14,35,34,50,123,303,86,36,58
14,35,34,50,116,268,89,37,55
14,36,34,48,115,258,89,37,55
15,35,30,43,109,205,86,38,48
15,31,28,38,91,175,86,39,44
15,26,26,37,84,150,83,38,44
15,24,23,35,79,140,82,40,45
15,23,22,36,70,144,74,41,45
15,21,19,31,71,128,74,40,46
15,24,18,31,69,129,75,40,65
15,26,18,30,79,143,89,43,75
15,28,17,30,76,159,89,41,89
15,28,17,28,82,163,92,44,92
15,26,18,28,84,181,110,43,93
15,22,18,31,93,174,110,43,73
15,20,18,29,81,167,106,44,72
15,17,20,29,87,148,104,44,53
15,20,19,32,96,151,98,39,49
15,21,18,32,99,146,80,34,48
15,22,20,29,94,146,104,34,47
15,25,25,42,102,177,103,30,31
15,25,23,42,94,189,108,29,30
15,22,24,40,86,204,112,29,27
15,21,25,42,90,197,115,33,24
15,22,24,40,90,194,97,33,26
15,20,19,30,79,176,110,32,27
15,19,19,34,80,184,106,33,28
15,20,21,40,82,167,116,32,26
15,19,20,38,70,165,117,32,28
15,18,22,39,68,171,119,32,25
15,16,21,40,75,158,99,33,39
15,21,29,37,75,130,99,35,41
15,23,27,29,67,114,92,37,43
15,24,27,30,70,149,94,38,42
15,26,25,29,71,141,90,41,42
15,24,25,25,70,144,102,41,31
15,21,16,24,66,154,108,40,27
15,21,18,27,66,154,106,45,25
15,22,16,24,66,119,109,43,27
15,20,18,22,60,124,113,45,26
15,20,18,25,56,117,101,43,23
15,20,19,25,59,111,92,44,25
15,19,19,22,63,118,94,39,25
15,19,20,26,61,129,96,38,22
15,85,20,27,61,122,104,32,24
15,166,21,29,64,144,111,35,57
15,177,22,37,63,146,108,32,57
15,178,22,42,53,144,100,31,58
15,179,24,42,76,128,85,31,60
15,163,24,44,97,163,66,33,60
15,84,24,42,100,145,66,31,31
15,57,21,36,99,139,78,34,29
15,55,22,32,99,131,91,35,25
15,51,18,28,82,147,97,34,22
16,37,20,28,57,111,106,37,21
16,25,20,26,44,112,107,38,16
16,25,21,29,52,116,102,36,16
16,21,20,28,51,115,93,34,18
16,22,22,30,57,127,87,36,18
16,17,21,31,58,130,88,35,19
16,19,22,31,59,129,87,36,21
16,18,22,28,58,141,95,39,23
16,19,21,30,64,149,93,37,22
16,19,20,27,60,125,102,38,21
16,21,19,27,63,121,96,35,19
16,21,18,27,67,124,99,31,23
16,24,20,27,64,115,99,29,23
16,23,20,27,62,100,98,30,25
16,22,20,29,59,144,110,34,25
16,22,20,28,53,146,103,33,26
16,20,21,29,58,166,115,38,25
16,17,19,33,54,163,118,37,24
16,17,19,34,50,167,118,38,23
16,17,21,38,56,136,97,36,24
16,17,23,35,56,128,112,40,24
16,16,24,35,52,90,113,40,26
16,16,22,30,57,81,109,40,28
16,18,21,30,62,92,118,40,27
16,18,20,25,68,97,122,39,27
16,17,18,30,66,109,118,38,26
16,18,16,30,67,113,99,36,20
16,16,20,30,65,113,90,36,20
16,15,21,28,62,103,81,36,21
16,14,19,28,55,107,83,35,21
16,16,18,22,58,99,87,34,21
16,15,18,24,54,118,93,33,23
16,17,19,32,59,125,101,34,22
16,17,18,32,59,151,102,34,21
16,17,20,32,67,145,116,34,20
16,18,20,33,65,161,111,33,22
16,17,21,33,64,155,107,33,23
16,17,17,26,61,160,106,32,22
16,17,17,28,65,134,106,31,23
16,18,17,28,62,130,88,34,22
16,20,18,28,69,147,98,34,19
16,21,21,27,72,149,102,35,21
16,21,25,29,71,145,112,35,21
16,23,26,29,67,156,122,35,21
16,22,27,30,64,163,134,32,21
16,20,25,29,60,133,124,31,23
16,19,25,32,58,131,119,35,20
16,19,22,29,55,129,104,35,24
16,16,22,28,67,125,102,38,24
16,18,22,29,65,122,84,39,25
17,18,22,30,68,121,84,37,24
17,20,20,27,75,125,91,36,24
17,19,19,27,81,117,100,35,22
17,18,19,24,72,109,93,35,23
17,16,19,24,70,114,102,34,23
17,17,20,25,77,123,107,34,25
17,19,18,26,66,113,115,36,25
17,19,19,26,62,143,121,34,23
17,21,18,31,71,144,131,33,22
17,20,19,27,74,134,131,34,22
17,19,19,26,63,142,128,36,18
17,17,20,24,81,143,137,31,20
17,17,19,24,81,115,127,31,21
17,19,17,25,73,109,116,31,22
17,19,16,28,70,112,112,31,23
17,19,19,28,72,84,129,29,26
17,18,19,29,64,81,108,29,26
17,18,21,29,63,85,110,29,26
17,20,22,28,69,139,123,34,28
17,20,22,26,75,140,121,35,26
17,19,22,27,86,145,105,36,26
17,21,22,26,77,139,115,38,26
17,22,20,26,77,179,116,40,28
17,18,20,24,70,143,111,35,25
17,19,20,24,61,145,118,34,40
17,24,17,23,45,154,112,33,111
17,26,20,25,55,158,105,33,115
17,26,21,28,56,111,110,33,119
17,26,20,26,59,118,102,33,122
17,27,21,26,72,119,111,36,118
17,21,22,25,72,112,113,39,59
17,19,19,23,71,131,118,39,50
17,19,18,19,79,133,113,39,39
17,18,19,24,84,135,118,43,29
17,18,17,24,73,135,99,40,30
17,19,17,29,70,129,107,38,25
17,18,17,30,63,123,103,39,25
17,18,19,31,56,123,106,39,27
17,18,20,29,53,125,116,36,40
17,18,21,29,61,131,133,38,53
17,22,23,25,63,137,128,37,59
17,22,23,27,71,126,141,34,61
17,21,24,29,82,130,141,31,61
17,23,23,28,80,120,128,34,57
17,23,24,30,78,112,110,33,47
17,18,22,33,82,112,120,36,39
17,20,22,31,78,105,110,38,51
17,20,21,32,69,103,101,41,51
17,18,20,34,75,115,112,40,48
17,17,19,34,81,116,120,39,46
18,18,19,31,76,107,121,36,48
18,16,20,30,75,109,120,37,30
18,17,19,28,73,99,125,35,30
18,18,21,29,78,104,126,32,27
18,18,21,28,76,98,123,34,38
18,17,22,30,80,112,116,34,39
18,17,23,32,79,110,113,35,39
18,15,22,30,85,114,107,37,39
18,16,23,32,75,93,95,36,40
18,17,24,40,74,116,90,36,32
18,19,23,39,70,109,112,47,31
18,23,23,41,90,109,116,57,35
18,30,23,42,85,113,125,97,37
18,38,23,40,89,132,138,109,43
18,46,24,35,89,144,143,135,45
18,48,26,41,95,148,123,157,46
18,51,27,40,83,157,153,182,53
18,49,28,41,80,168,154,180,54
18,45,27,41,77,159,148,203,57
18,44,28,43,73,162,144,210,66
18,57,29,39,72,154,147,203,83
18,65,35,44,70,162,124,198,98
18,107,44,55,127,168,176,266,160
18,139,53,63,143,190,199,328,197
18,176,67,81,157,194,232,389,229
18,236,86,104,160,212,261,453,284
18,265,91,109,188,207,261,489,301
18,255,94,115,317,199,241,508,296
18,255,91,125,321,185,279,493,284
18,243,90,127,375,192,268,478,264
18,208,79,114,395,172,250,484,221
18,216,73,115,408,190,264,499,216
18,231,70,134,343,240,267,523,205
18,223,76,162,373,259,233,554,191
18,245,77,166,336,256,235,579,201
18,249,77,171,333,277,246,539,188
18,277,92,181,340,275,242,534,257
18,281,95,173,326,258,251,464,255
18,283,87,148,301,238,249,438,278
18,279,83,152,333,232,248,386,274
18,270,78,147,344,228,291,366,272
18,215,58,130,321,224,303,305,191
18,223,60,121,313,196,350,318,181
18,221,63,112,326,213,399,271,156
18,206,63,91,297,202,430,270,145
18,202,73,110,268,183,423,326,148
18,197,77,118,302,173,430,369,159
18,160,70,126,292,168,386,407,156
18,162,69,120,319,137,337,431,163
18,169,68,122,312,132,293,449,169
19,167,63,110,314,133,252,411,170
19,178,60,109,312,147,225,371,157
19,193,61,96,307,159,219,340,163
19,192,68,98,243,174,207,312,155
19,174,69,97,231,169,222,297,161
19,169,63,101,295,170,237,312,154
19,162,70,123,315,174,275,347,154
19,164,70,127,336,158,289,330,150
19,155,61,134,339,154,287,310,137
19,158,59,141,338,155,304,285,129
19,157,63,137,284,156,312,283,132
19,153,52,113,245,134,292,259,130
19,132,52,104,227,139,297,244,121
19,131,55,105,268,123,294,260,120
19,125,52,96,276,121,337,248,108
19,135,53,112,282,117,329,231,109
19,121,54,111,252,111,327,213,95
19,131,56,114,246,106,320,223,94
19,141,53,107,231,111,325,248,96
19,152,59,104,232,120,252,263,98
19,133,51,80,241,116,257,260,77
19,151,50,74,246,112,245,312,90
19,142,46,77,237,107,262,326,90
19,134,52,80,221,103,255,290,88
19,147,48,72,202,103,255,274,108
19,148,47,72,164,103,231,299,106
19,130,47,78,159,118,235,275,100
19,134,45,71,169,120,201,250,102
19,132,39,65,156,121,198,253,103
19,106,35,64,168,102,213,260,97
19,107,37,64,186,98,227,251,102
19,103,36,65,184,90,203,210,108
19,105,39,63,188,107,194,207,102
19,114,39,66,187,114,212,208,101
19,108,37,75,179,126,179,218,95
19,109,37,70,155,131,169,209,95
19,190,50,68,167,136,182,211,119
19,193,48,67,155,130,182,212,124
19,192,48,69,140,124,184,212,131
19,190,51,72,147,140,187,222,132
19,206,54,74,148,134,213,233,152
19,149,45,72,138,130,207,226,136
19,144,45,77,160,122,215,245,132
19,144,45,73,165,125,200,260,130
19,151,50,66,163,92,233,231,137
19,136,46,66,166,97,235,225,118
19,127,44,66,157,93,241,228,108
19,128,43,62,129,95,240,214,120
19,128,44,59,128,92,251,207,117
19,114,35,51,123,110,228,218,102
20,119,37,56,131,106,200,224,105
20,120,34,56,132,105,193,216,110
20,114,34,61,134,102,196,225,99
20,116,39,74,175,98,217,237,93
20,115,38,74,182,85,217,228,89
20,95,33,72,173,91,231,218,75
20,88,42,73,191,88,256,222,68
20,92,45,68,205,88,254,209,73
20,82,40,50,164,100,258,180,76
20,87,42,61,178,103,272,186,87
20,93,46,74,198,95,257,187,91
20,87,39,74,184,102,240,180,90
20,94,44,78,205,132,231,172,97
20,100,48,82,210,130,196,171,102
20,96,48,76,196,129,181,168,93
20,92,51,66,191,132,189,155,95
20,101,56,70,195,127,184,153,106
20,99,55,74,152,104,194,190,96
20,90,52,71,154,96,193,184,88
20,86,51,72,160,92,190,183,88
20,99,48,69,148,87,184,194,89
20,100,48,61,135,86,200,204,72
20,87,46,64,150,80,216,174,67
20,87,45,64,146,87,231,215,81
20,92,46,73,154,83,227,209,82
20,86,47,83,155,92,246,205,77
20,80,44,92,159,92,235,234,77
20,83,37,85,152,95,239,224,78
20,86,41,86,153,95,229,192,63
20,91,39,82,168,101,247,201,66
20,83,34,73,168,93,226,213,71
20,81,35,64,169,102,263,183,71
20,83,38,73,177,112,254,201,73
20,83,40,73,184,117,263,197,76
20,90,40,74,154,120,253,188,79
20,93,42,73,148,131,260,167,81
20,94,43,80,147,131,225,174,85
20,92,44,81,171,137,232,187,92
20,96,40,80,161,145,230,186,88
20,84,41,76,154,143,216,186,85
20,86,44,76,173,146,229,224,92
20,96,42,71,186,147,247,229,97
20,95,39,60,161,138,239,256,96
20,96,37,65,165,124,227,277,99
20,99,40,73,173,128,229,344,106
20,102,39,76,150,124,246,382,100
20,99,42,77,160,122,217,380,95
20,107,44,85,183,114,214,356,96
20,99,44,82,193,119,225,383,103
20,99,42,75,189,108,242,342,105
21,90,40,72,188,105,219,327,102
21,82,36,75,177,130,233,336,104
21,72,37,71,159,137,253,329,96
21,84,36,67,132,133,247,310,98
21,85,38,68,135,139,252,332,94
21,100,40,73,143,139,252,273,100
21,104,39,66,150,118,255,299,105
21,109,39,63,136,116,227,311,118
21,116,48,70,138,116,224,297,110
21,118,52,69,150,116,204,254,113
21,106,51,66,167,116,197,269,111
21,108,50,61,161,109,199,227,109
21,115,52,67,206,100,203,252,111
21,110,45,64,209,98,215,249,118
21,110,44,67,194,105,213,276,111
21,109,44,71,200,104,210,299,110
21,112,47,82,190,131,234,295,103
21,104,46,89,142,133,233,287,94
21,96,46,89,140,136,223,283,85
21,92,43,88,169,134,259,261,85
21,89,43,85,174,140,271,237,82
21,83,41,76,179,118,275,312,92
21,91,46,71,191,128,290,342,94
21,100,48,76,195,130,294,350,98
21,103,50,75,198,135,298,377,102
21,131,51,73,180,126,305,391,103
21,152,50,73,212,128,269,398,115
21,144,44,66,217,125,285,375,118
21,154,42,60,223,132,312,408,142
21,149,41,60,200,123,295,405,138
21,136,45,70,214,132,284,423,146
21,123,48,78,190,129,291,369,132
21,124,50,81,205,125,266,383,137
21,102,49,89,210,127,223,347,104
21,110,54,95,218,126,237,361,108
21,117,49,100,237,119,239,352,109
21,118,48,93,229,145,265,373,111
21,134,44,93,218,149,323,351,108
21,134,44,92,205,145,331,359,110
21,126,38,91,226,143,324,387,115
21,111,38,88,212,138,330,356,106
21,101,46,109,232,122,317,334,108
21,125,52,104,218,122,261,350,116
21,140,55,98,221,109,256,368,125
21,155,63,119,221,124,294,321,118
21,157,62,113,203,135,279,331,117
21,169,57,96,176,124,266,355,115
21,149,58,107,178,127,269,353,102
21,138,59,118,195,158,274,342,97
21,139,60,102,196,149,270,327,101
22,143,61,102,197,166,280,330,101
22,130,61,102,206,165,298,295,101
22,138,60,92,206,159,293,303,115
22,200,67,83,211,136,284,286,147
22,205,63,71,190,144,231,280,148
22,200,64,76,185,121,210,259,144
22,196,61,71,174,140,177,272,139
22,188,57,67,172,155,160,211,146
22,181,50,61,138,188,155,182,134
22,175,48,60,128,197,163,185,146
22,178,53,47,107,200,157,175,149
22,176,55,46,113,246,153,154,186
22,189,65,61,146,361,158,155,217
22,140,62,77,180,436,158,150,245
22,125,64,81,195,504,157,111,258
22,121,59,88,234,535,170,109,268
22,126,63,97,258,600,175,87,269
22,92,64,99,258,580,185,77,242
22,78,83,110,317,624,209,98,212
22,112,114,159,370,629,239,128,190
22,115,119,163,359,698,280,132,176
22,110,120,165,353,666,287,136,138
22,117,124,166,371,698,285,140,139
22,120,115,161,305,639,266,133,133
22,88,84,112,237,604,226,102,137
22,87,83,112,223,516,175,104,138
22,84,80,102,206,487,158,94,141
22,73,65,92,156,420,146,84,118
22,57,58,74,156,377,142,71,106
22,53,57,70,143,348,140,68,86
22,43,43,52,140,340,119,52,77
22,43,39,50,132,312,132,50,75
22,34,34,44,116,270,116,39,76
22,32,31,43,108,272,121,37,76
22,27,24,39,90,271,122,41,70
22,27,22,43,92,235,147,42,68
22,26,22,40,96,230,136,41,53
22,26,20,41,91,230,140,44,56
22,26,18,37,87,218,133,45,63
22,27,18,37,87,209,138,45,62
22,28,19,30,94,234,116,41,63
22,32,25,35,93,282,118,43,63
22,33,30,34,92,268,121,42,58
22,43,37,45,105,295,121,46,53
22,50,43,47,108,308,111,50,56
22,61,54,62,158,322,121,63,63
22,60,54,62,157,282,121,64,64
22,72,68,80,212,321,150,79,79
22,71,69,79,209,283,155,78,69
23,71,69,81,237,291,179,83,70
23,62,62,72,203,243,167,74,63
23,59,60,70,209,237,173,72,63
23,43,42,48,156,185,147,58,41
23,35,35,40,155,196,139,53,47
23,26,28,32,104,191,98,36,45
23,42,23,30,96,199,119,39,52
23,44,22,32,89,217,106,42,54
23,45,20,29,87,229,107,39,54
23,45,23,32,83,236,103,38,43
23,43,26,34,85,231,115,40,49
23,25,27,34,86,241,97,40,40
23,25,27,36,66,229,98,34,40
23,25,30,42,65,223,110,33,39
23,27,29,42,76,289,120,35,41
23,26,28,44,84,274,151,36,30
23,28,28,43,93,272,156,32,45
23,26,29,41,96,277,154,35,45
23,25,25,35,91,275,147,37,48
23,23,23,33,84,240,153,35,48
23,24,23,27,79,258,147,30,48
23,22,22,30,74,270,153,34,48
23,23,22,27,81,261,149,34,49
23,24,21,29,97,295,155,35,50
23,23,23,27,94,256,147,39,49
23,25,25,29,91,252,125,42,49
23,24,26,24,91,227,112,41,35
23,25,27,26,83,225,122,39,31
23,23,27,27,62,170,111,37,26
23,22,24,27,63,183,110,34,27
23,21,18,25,65,163,100,30,26
23,20,16,27,58,164,119,30,23
23,18,13,24,56,161,115,30,24
23,19,14,23,62,171,117,32,24
23,19,17,25,60,156,110,31,23
23,18,20,27,65,148,115,32,22
23,18,23,27,71,175,103,32,24
23,17,24,27,75,179,99,31,24
23,17,24,25,68,161,93,29,26
23,17,24,22,66,150,116,31,27
23,15,23,21,54,143,114,30,27
23,16,21,21,52,107,108,31,24
23,17,20,23,57,121,108,31,25
23,19,19,26,74,129,117,33,25
23,19,19,29,83,142,98,33,22
23,21,19,28,88,157,105,33,24
23,21,19,26,90,172,110,33,25
23,23,21,29,90,169,130,34,22
23,21,25,27,84,194,127,41,19
23,22,24,29,80,186,132,42,23
24,20,25,31,75,180,124,42,25
24,20,25,33,76,167,129,41,23
24,17,26,32,83,163,109,39,24
24,16,26,34,80,131,103,30,25
24,15,25,31,82,145,91,27,24
24,16,24,30,87,162,102,30,21
24,17,24,31,82,176,85,31,23
24,18,24,32,82,180,85,33,23
24,18,23,30,85,178,92,33,23
24,17,22,28,82,170,110,33,22
24,16,23,32,88,159,99,30,23
24,16,21,30,87,148,102,28,21
24,18,18,29,90,160,119,27,21
24,19,15,27,111,179,113,32,21
24,21,16,32,109,186,111,30,21
24,23,14,29,102,199,126,29,21
24,22,17,28,103,197,130,28,23
24,22,17,30,95,197,121,27,22
24,20,19,31,70,179,120,21,25
24,17,20,30,81,181,121,22,26
24,18,21,29,79,158,112,27,24
24,19,22,31,78,166,106,29,24
24,18,22,28,73,150,106,32,24
24,18,22,30,70,150,107,32,22
24,23,22,28,76,153,104,31,20
24,22,23,27,74,157,102,32,22
24,21,22,25,72,152,114,35,21
24,23,25,31,86,178,109,33,21
24,23,24,29,86,196,115,33,23
24,19,26,30,73,191,117,33,23
24,18,25,32,78,192,130,30,23
24,19,23,33,77,183,127,27,21
24,16,21,28,59,169,133,29,22
24,15,20,30,60,158,136,32,21
24,15,17,30,57,151,123,31,21
24,19,18,28,55,142,116,31,21
24,18,18,29,68,147,118,34,22
24,20,18,31,80,145,127,35,23
24,20,19,27,80,143,127,37,21
24,21,19,28,83,135,128,39,22
24,17,17,28,82,148,131,40,23
24,19,19,27,77,163,128,39,24
24,18,21,25,67,155,111,36,22
24,20,29,36,86,158,126,34,24
24,20,30,40,87,199,144,33,26
24,21,31,41,87,191,145,34,26
24,19,30,42,84,181,144,32,26
24,19,29,40,83,180,160,32,28
24,16,22,32,70,186,147,31,26
24,15,22,26,70,142,132,31,23
25,15,22,24,75,174,135,31,22
25,15,24,21,75,186,148,34,20
25,15,25,24,78,199,137,35,18
25,16,22,22,70,180,147,36,20
25,17,23,21,74,194,147,36,20
25,16,23,22,77,177,140,33,22
25,16,24,23,76,174,137,32,23
25,18,23,22,70,165,150,32,23
25,17,24,23,69,171,141,31,23
25,17,21,25,65,159,152,34,23
25,17,22,27,93,171,153,34,22
25,18,19,30,93,161,151,32,23
25,15,18,30,99,167,153,33,27
25,17,19,35,104,177,151,30,24
25,17,20,35,110,178,158,31,24
25,18,20,32,88,167,149,32,24
25,19,20,31,87,168,142,35,23
25,19,20,33,80,158,129,38,21
25,18,20,27,91,142,125,42,23
25,18,20,25,93,132,94,40,22
25,18,19,25,85,118,107,41,22
25,17,18,23,85,115,104,40,21
25,17,18,23,118,118,97,35,20
25,17,18,26,114,138,108,34,20
25,18,18,27,106,148,125,33,20
25,18,16,27,112,146,122,30,20
25,18,18,29,115,167,124,29,20
25,20,18,27,82,170,144,29,23
25,20,20,23,84,166,151,27,23
25,19,19,23,91,169,138,31,24
25,18,20,26,84,172,135,31,25
25,18,20,26,87,155,159,30,27
25,17,20,26,108,172,150,34,28
25,18,19,34,117,200,187,36,28
25,18,21,34,115,193,207,36,29
25,17,20,34,119,204,205,41,28
25,17,18,33,117,204,191,42,26
25,18,18,32,100,187,191,46,26
25,17,16,26,76,150,162,44,25
25,18,17,30,68,159,139,43,23
25,18,19,30,61,137,144,41,22
25,19,20,29,61,132,146,43,25
25,19,20,30,63,147,151,37,22
25,18,22,29,63,144,144,40,24
25,17,22,25,64,133,146,37,25
25,19,21,27,65,156,154,37,24
25,19,22,29,67,148,153,40,22
25,18,21,30,74,137,146,50,22
25,21,25,29,74,140,163,71,26
25,22,23,34,70,144,166,102,38
26,28,23,31,76,132,160,128,47
26,36,25,34,92,146,156,141,56
26,50,26,33,94,137,177,187,66
26,68,28,37,116,218,172,239,79
26,89,36,36,126,253,187,261,86
26,103,37,42,132,269,196,286,114
26,134,46,47,129,274,208,391,174
26,153,52,50,127,307,195,482,214
26,166,56,56,118,266,196,490,230
26,166,57,83,169,265,222,522,239
26,173,65,95,197,281,224,562,250
26,208,73,109,207,283,216,511,241
26,232,83,127,234,281,247,481,267
26,274,91,133,272,279,281,472,291
26,354,111,152,389,281,327,479,335
26,415,136,228,564,257,352,451,349
26,413,132,228,577,258,426,541,376
26,422,132,226,571,239,451,569,355
26,421,136,248,625,257,449,569,362
26,382,129,243,575,243,441,564,354
26,339,104,177,444,233,432,561,339
26,376,122,194,480,244,378,503,333
26,359,115,190,498,240,353,443,318
26,341,103,160,455,211,336,427,283
26,326,95,147,442,195,286,376,250
26,302,95,163,404,190,288,391,241
26,251,76,140,350,161,269,343,188
26,251,82,145,362,159,272,312,218
26,262,87,150,320,166,279,369,227
26,249,89,145,360,176,278,379,211
26,278,86,127,371,188,259,327,220
26,259,79,139,361,189,263,354,222
26,252,74,134,317,178,239,379,194
26,232,70,128,322,199,274,344,177
26,254,68,131,334,190,273,375,212
26,339,84,125,315,183,288,417,263
26,368,95,113,317,183,298,403,285
26,368,97,116,347,197,286,387,282
26,369,105,122,329,199,270,380,285
26,353,101,128,267,198,304,413,266
26,253,88,131,297,206,306,401,206
26,208,78,127,314,198,310,391,166
26,241,84,124,293,195,361,408,194
26,235,81,139,306,155,366,420,193
26,287,84,146,277,188,348,363,209
26,286,81,149,244,183,335,367,210
26,283,79,155,226,190,331,374,207
26,252,73,158,282,195,292,331,182
26,261,72,141,281,205,289,331,180
26,206,77,136,294,198,318,335,153
27,195,82,132,312,192,310,307,146
27,188,84,128,322,199,327,315,150
27,173,81,125,288,177,321,368,156
27,141,73,128,273,173,305,336,143
27,126,74,131,284,158,288,355,142
27,114,72,146,250,166,301,363,148
27,141,79,147,284,167,306,352,155
27,150,81,142,286,172,302,294,146
27,157,85,142,284,173,298,309,148
27,188,87,135,264,154,325,298,172
27,197,91,117,275,167,327,281,165
27,182,85,111,213,155,347,305,164
27,189,87,112,195,148,350,325,170
27,206,91,113,222,144,376,309,188
27,181,80,101,247,141,346,269,168
27,168,70,92,241,112,346,272,162
27,188,71,95,247,107,323,230,160
27,185,74,103,246,132,339,203,165
27,164,69,91,224,128,325,255,149
27,178,75,96,187,123,338,303,147
27,178,77,102,183,123,345,283,140
27,161,79,98,192,131,329,308,128
27,163,76,99,193,111,303,344,116
27,178,73,100,201,113,278,329,134
27,163,70,105,229,126,250,300,125
27,185,78,105,236,129,260,312,150
27,182,72,97,220,125,241,294,154
27,190,74,92,224,144,281,265,168
27,185,74,99,231,156,283,270,161
27,185,73,87,204,151,268,298,163
27,159,63,89,202,142,247,297,151
27,168,72,96,198,146,272,384,162
27,159,76,103,194,127,226,383,146
27,149,70,94,179,105,224,366,134
27,144,69,96,179,111,293,343,135
27,145,68,96,171,120,293,383,128
27,131,63,91,175,111,303,331,105
27,108,58,93,196,108,322,321,96
27,97,64,89,191,104,317,323,89
27,111,67,88,196,98,296,310,94
27,110,67,81,194,102,301,246,89
27,122,63,82,187,100,262,286,89
27,121,54,74,133,96,262,290,92
27,128,48,75,119,101,277,313,107
27,123,51,76,125,107,249,326,108
27,138,59,76,143,99,262,333,118
27,135,60,77,158,112,289,293,126
27,136,62,78,192,126,296,282,124
27,138,60,77,196,124,307,242,117
27,135,62,76,188,119,305,243,106
28,121,65,76,170,115,278,237,96
28,131,67,72,194,100,259,215,122
28,127,64,58,165,85,245,234,116
28,123,66,51,184,88,240,244,113
28,158,68,53,204,93,249,241,136
28,168,63,51,224,100,254,273,139
28,153,57,62,226,100,261,253,120
28,157,59,61,219,111,240,250,125
28,157,63,65,203,110,225,265,124
28,122,56,92,196,102,232,265,100
28,98,51,94,175,98,275,243,92
28,111,51,93,134,100,259,241,93
28,109,50,97,143,91,272,243,95
28,109,46,98,137,98,270,216,95
28,129,48,74,122,97,253,229,95
28,166,56,73,122,97,214,221,116
28,161,56,73,121,99,219,217,107
28,163,55,67,130,102,255,230,104
28,157,51,66,144,92,253,248,102
28,157,46,72,156,95,257,233,110
28,142,39,71,159,97,255,241,101
28,135,39,67,160,92,249,255,101
28,142,40,67,145,86,236,224,105
28,146,44,70,156,108,284,226,115
28,132,40,62,135,107,270,257,121
28,133,47,76,156,107,288,254,121
28,135,48,82,178,107,294,262,130
28,123,45,91,175,114,287,293,127
28,130,47,88,153,107,234,277,126
28,161,61,88,155,107,239,235,135
28,159,54,75,141,108,265,233,137
28,164,56,87,123,107,276,214,130
28,164,59,84,141,111,259,196,127
28,156,54,81,165,113,260,199,123
28,124,44,88,195,123,301,204,108
28,131,47,86,202,127,250,233,115
28,130,45,68,221,130,261,239,123
28,142,42,61,219,122,266,268,153
28,148,58,74,223,135,288,285,151
28,140,61,73,210,128,255,293,146
28,115,58,83,203,122,282,274,136
28,112,57,80,175,124,307,279,127
28,99,59,80,165,121,324,248,93
28,92,54,80,208,101,309,283,110
28,139,49,78,198,98,327,325,116
28,143,49,73,193,91,312,330,118
28,149,53,74,214,86,278,332,121
28,146,53,74,216,95,280,324,119
28,148,45,71,178,105,283,299,110
28,149,50,74,210,110,261,252,118
29,167,51,75,217,118,265,242,114
29,156,49,77,226,136,264,234,110
29,160,54,84,238,145,252,247,108
29,170,55,90,233,138,238,236,123
29,141,54,114,319,178,244,250,111
29,120,63,120,316,183,245,264,112
29,135,70,134,351,192,228,268,120
29,139,71,150,379,196,300,273,130
29,123,76,164,376,204,305,269,116
29,125,72,152,309,166,311,304,118
29,146,70,149,343,177,339,287,133
29,135,70,164,361,183,382,278,128
29,129,74,177,369,173,352,275,125
29,143,102,164,381,168,359,272,125
29,147,110,162,364,175,368,213,119
29,139,114,162,338,168,350,210,92
29,137,113,165,277,141,310,238,89
29,141,112,142,227,139,277,222,81
29,177,96,143,222,136,318,215,119
29,167,86,140,217,144,300,219,122
29,180,83,149,216,147,315,228,147
29,180,79,121,226,147,376,233,148
29,177,70,123,224,172,373,231,149
29,131,59,120,209,167,349,225,118
29,133,66,129,224,159,363,234,119
29,105,61,130,240,158,355,252,104
29,107,64,149,213,166,289,229,103
29,114,68,150,202,139,298,227,106
29,123,64,149,202,138,307,242,133
29,121,56,141,200,136,288,221,130
29,113,51,131,177,120,284,184,120
29,115,48,105,192,107,302,199,116
29,126,43,96,208,117,328,214,119
29,113,44,89,206,114,303,203,82
29,116,53,85,215,123,319,205,89
29,113,54,82,206,119,294,256,99
29,118,54,76,183,113,284,238,110
29,99,59,67,167,101,282,243,102
29,95,56,76,167,120,277,251,100
29,94,55,100,141,115,281,261,103
29,89,55,105,183,132,317,259,94
29,100,54,116,205,133,347,286,106
29,109,50,116,205,137,307,274,106
29,109,52,113,214,126,315,264,106
29,110,49,98,215,124,295,278,95
29,107,50,95,186,118,262,246,90
29,90,48,78,174,116,227,206,62
29,86,49,81,180,119,259,219,59
29,83,49,81,176,124,262,250,64
29,84,45,71,161,125,290,246,74
30,93,45,81,189,119,283,235,80
30,89,44,97,197,127,270,245,79
30,79,53,124,212,131,261,225,80
30,86,54,135,232,145,256,197,81
30,78,54,137,238,143,228,167,76
30,75,52,130,213,146,232,190,70
30,78,52,123,210,154,247,174,69
30,77,48,109,220,157,245,185,67
30,76,47,109,199,154,286,214,64
30,80,55,128,200,156,304,218,71
30,80,58,141,214,150,316,208,74
30,72,60,142,213,133,316,206,74
30,73,57,149,227,158,316,208,76
30,66,60,149,254,149,261,190,75
30,61,54,153,259,159,268,205,68
30,80,79,143,259,199,256,196,103
30,125,127,146,265,410,240,190,143
30,150,144,133,261,426,235,178,180
30,165,148,128,250,474,252,146,207
30,171,160,104,238,502,203,101,292
30,178,164,105,246,548,235,98,293
30,157,144,120,319,528,247,108,354
30,138,128,114,306,539,241,116,350
30,124,124,116,307,570,230,123,363
30,129,119,133,340,651,242,128,336
30,125,123,168,378,754,249,151,375
30,114,110,153,317,695,260,141,307
30,130,124,171,336,739,274,148,302
30,134,132,167,369,765,273,146,272
30,122,123,151,355,709,261,137,252
30,97,95,107,335,611,231,104,185
30,99,94,103,323,612,194,104,187
30,67,72,68,299,576,163,77,171
30,51,51,60,232,498,167,58,165
30,46,51,62,216,495,178,60,126
30,46,48,65,162,447,157,57,111
30,41,44,63,177,481,177,62,111
30,38,41,58,157,437,184,59,108
30,33,38,51,152,408,181,60,110
30,32,37,47,137,369,182,59,96
30,40,43,51,133,344,179,59,93
30,38,43,48,116,273,167,52,75
30,40,42,46,106,260,164,57,97
30,39,39,46,99,246,153,52,99
30,38,36,52,112,232,162,49,101
30,35,32,45,111,262,177,46,100
30,35,32,47,112,272,175,45,94
30,32,28,46,114,265,165,34,68
30,32,29,46,118,267,197,39,61
31,35,30,43,110,274,189,43,64
31,28,27,37,96,238,176,42,67
31,27,25,36,88,212,174,43,65
31,28,25,39,91,225,192,49,67
31,28,24,39,88,251,167,48,66
31,27,24,43,85,228,156,44,67
31,31,29,46,85,247,175,47,64
31,31,29,43,86,251,179,47,82
31,31,32,40,93,268,159,43,85
31,35,36,45,102,269,157,45,88
31,41,41,42,107,327,184,46,97
31,37,36,42,112,348,184,43,92
31,37,37,42,113,347,188,44,75
31,38,34,40,110,373,183,45,91
31,35,30,35,109,366,181,48,94
31,26,23,30,107,324,153,46,82
31,26,22,32,103,273,150,51,83
31,28,23,34,104,297,155,49,83
31,27,23,35,98,221,169,51,60
31,26,23,36,89,213,165,43,68
31,27,24,35,80,210,179,47,64
31,29,24,28,70,221,168,45,60
31,28,23,29,71,209,151,46,58
31,38,25,36,65,216,137,43,59
31,39,25,35,65,201,161,45,49
31,41,28,39,61,197,150,42,49
31,40,32,40,75,184,148,39,50
31,39,33,38,78,158,147,37,50
31,31,31,33,82,200,180,37,45
31,29,32,36,81,212,178,38,65
31,27,29,34,82,204,199,41,65
31,26,23,35,70,198,204,41,66
31,29,22,34,70,215,223,40,66
31,26,23,35,73,170,211,41,67
31,27,20,30,76,166,207,43,52
31,26,21,28,79,211,182,43,67
31,25,23,30,84,223,199,42,71
31,22,22,29,77,229,178,42,71
31,22,20,25,82,243,165,39,71
31,23,26,29,83,260,160,35,70
31,25,25,28,84,240,181,37,60
31,26,22,24,78,238,150,36,55
31,26,23,28,81,220,168,40,56
31,25,24,31,72,213,164,42,56
31,25,19,32,71,186,158,43,54
31,23,21,33,68,170,131,45,64
31,28,25,35,78,243,138,50,63
31,29,24,32,88,282,122,50,68
31,30,25,31,101,283,139,53,70
31,28,24,28,107,297,153,53,60
32,27,23,26,109,297,152,47,43
32,25,20,24,109,252,146,44,66
32,25,20,24,103,208,171,44,59
32,23,22,22,96,197,160,37,58
32,22,22,25,92,197,139,40,60
32,25,21,29,89,202,153,43,80
32,24,21,32,90,181,189,45,74
32,23,24,35,86,204,174,44,74
32,25,23,37,74,207,195,55,76
32,26,25,37,71,208,202,57,83
32,25,26,38,75,234,192,64,77
32,28,26,36,76,231,160,62,68
32,27,24,34,74,205,162,64,69
32,26,22,31,78,228,134,56,70
32,29,21,30,84,230,151,59,96
32,28,24,28,84,218,170,58,88
32,24,24,26,78,224,190,57,88
32,25,26,27,85,235,200,58,91
32,26,25,28,85,214,209,56,89
32,21,26,28,81,200,199,50,65
32,20,23,28,85,191,195,45,61
32,21,24,33,81,180,172,49,69
32,23,23,33,78,168,150,43,65
32,22,24,34,79,166,150,49,66
32,26,22,31,77,174,147,52,56
32,27,22,30,74,186,132,46,57
32,26,21,25,73,184,152,43,44
32,24,20,24,71,184,169,44,43
32,25,19,27,70,178,179,43,50
32,21,19,28,82,163,176,45,67
32,20,20,35,93,150,192,48,66
32,21,22,36,97,171,177,47,68
32,23,22,36,99,167,157,46,69
32,23,24,34,103,177,141,44,63
32,24,27,34,96,172,160,42,38
32,23,26,29,82,170,133,38,43
32,24,25,28,83,159,134,38,54
32,22,27,32,79,158,145,40,54
32,20,26,29,77,160,164,35,54
32,19,23,28,74,192,150,32,54
32,19,23,28,77,177,151,36,48
32,15,25,27,75,174,151,41,29
32,16,23,30,74,188,169,48,26
32,18,25,33,77,188,153,49,44
32,18,23,32,78,177,182,52,46
32,21,22,31,73,190,182,52,48
32,20,20,30,75,193,193,48,49
32,22,19,24,76,190,196,42,48
32,20,18,24,69,206,192,44,49
33,22,22,29,68,188,158,41,48
33,20,24,32,67,188,170,39,49
33,22,24,33,64,200,196,40,48
33,20,24,32,63,199,172,38,49
33,21,23,32,66,180,180,34,33
33,18,23,29,62,177,192,33,50
33,21,22,26,67,179,202,38,50
33,21,23,26,62,188,165,39,50
33,21,24,27,67,200,169,40,49
33,24,27,30,58,192,173,38,48
33,25,26,30,59,195,164,40,31
33,24,25,28,69,198,194,43,47
33,23,25,28,74,170,207,45,54
33,22,25,28,70,164,220,47,56
33,19,22,25,71,183,212,52,57
33,18,23,24,70,182,212,55,55
33,16,23,27,58,172,175,49,40
33,16,20,28,61,208,175,48,32
33,20,20,28,60,195,175,47,48
33,20,20,32,67,189,174,44,48
33,22,20,34,76,195,188,44,48
33,22,19,34,78,190,209,59,48
33,22,19,32,73,159,205,61,48
33,20,18,33,80,168,194,63,30
33,19,17,30,74,164,193,63,54
33,16,16,29,69,161,191,59,57
33,19,16,29,65,172,153,46,58
33,18,15,30,65,196,156,44,59
33,19,16,30,57,184,165,41,60
33,18,16,31,66,195,164,40,36
33,18,14,31,61,207,147,45,31
33,18,15,30,60,201,164,51,50
33,17,15,29,63,185,161,49,49
33,19,16,31,78,199,142,48,50
33,20,22,30,72,194,142,49,51
33,21,23,37,74,176,157,46,51
33,21,23,37,76,234,145,39,33
33,21,23,36,77,223,144,39,45
33,22,22,37,65,215,175,42,61
33,23,17,34,67,225,188,46,62
33,22,18,35,73,232,184,46,62
33,21,20,35,88,171,208,45,62
33,21,21,35,88,173,209,43,52
33,22,22,34,91,175,197,42,48
33,19,21,36,88,148,196,38,49
33,21,22,30,81,148,204,40,51
33,19,19,32,63,145,185,38,51
33,20,21,32,62,139,178,40,50
33,19,20,31,66,159,178,40,44
33,20,21,30,73,174,198,38,54
33,19,21,30,76,174,202,36,55
34,21,22,33,83,205,199,52,56
34,21,24,34,81,208,212,59,56
34,19,24,37,97,185,214,58,48
34,21,24,39,95,166,193,68,33
34,25,23,39,94,184,184,86,48
34,24,23,35,93,162,195,102,50
34,31,19,35,99,155,212,120,54
34,33,20,37,82,162,206,161,58
34,36,25,38,80,188,197,167,71
34,42,25,39,82,160,193,168,64
34,49,26,37,79,145,192,182,66
34,78,32,42,78,146,178,293,100
34,84,36,43,81,240,179,315,105
34,127,51,64,92,287,264,378,162
34,155,68,89,116,350,324,484,182
34,173,74,94,118,361,357,499,205
34,173,74,94,113,390,369,518,209
34,188,78,99,121,351,392,543,221
34,174,75,94,131,325,364,595,214
34,168,66,77,188,272,316,555,207
34,169,61,77,215,264,337,585,199
34,230,77,78,239,223,342,547,218
34,254,81,85,247,217,335,567,246
34,264,96,94,249,187,324,496,243
34,263,119,98,216,174,392,491,240
34,311,129,109,222,177,354,502,307
34,303,125,115,261,169,340,515,303
34,285,127,113,267,186,330,522,295
34,276,115,106,266,199,354,519,289
34,280,94,112,269,194,334,522,291
34,216,78,107,254,182,330,503,216
34,195,85,100,197,189,342,508,223
34,190,86,92,183,163,347,436,195
34,193,105,87,172,146,332,434,191
34,210,106,76,197,139,287,417,217
34,221,118,70,197,150,318,377,222
34,190,121,96,223,174,308,354,205
34,181,114,100,222,180,328,352,202
34,166,103,114,231,171,335,360,183
34,136,109,114,212,169,350,390,161
34,135,101,114,202,164,370,396,157
34,136,89,101,177,142,381,394,139
34,137,96,98,189,129,359,396,149
34,143,88,79,195,152,348,412,157
34,167,147,76,182,154,319,371,158
34,172,202,91,195,157,265,361,149
34,168,214,81,191,201,282,324,148
34,175,220,92,177,196,287,364,140
34,195,225,108,193,178,312,339,170
34,173,186,111,196,180,341,320,147
35,151,120,102,184,178,341,384,144
35,166,93,108,184,157,345,419,159
35,161,80,103,201,164,362,429,160
35,135,64,97,190,165,322,419,128
35,143,68,95,204,160,314,445,141
35,149,71,92,208,156,332,422,153
35,135,77,90,213,117,297,424,134
35,127,75,95,195,117,308,377,135
35,124,77,89,185,115,365,393,129
35,103,80,91,180,129,355,382,113
35,104,94,95,207,128,349,356,97
35,141,101,94,192,122,391,330,130
35,150,97,86,197,113,378,333,124
35,155,101,95,244,149,350,316,136
35,158,99,92,246,148,358,318,144
35,153,86,85,215,158,379,319,144
35,135,77,84,223,166,376,301,129
35,142,75,83,220,171,363,311,134
35,137,70,73,169,142,361,295,121
35,135,70,75,154,129,366,277,129
35,139,72,71,176,129,347,251,135
35,126,69,66,177,128,328,266,124
35,107,73,71,195,126,331,261,125
35,110,70,63,196,130,314,274,142
35,109,65,53,182,141,291,278,132
35,96,62,52,172,129,254,282,118
35,86,68,59,167,138,262,257,113
35,99,73,69,151,151,259,266,113
35,103,73,77,134,147,261,277,98
35,101,74,89,160,144,284,265,99
35,103,76,99,159,144,293,321,112
35,109,68,102,168,136,249,328,121
35,112,58,99,154,116,251,310,129
35,110,54,100,155,126,278,341,147
35,108,51,91,135,122,267,343,144
35,114,48,84,130,124,271,295,144
35,111,53,75,127,130,276,304,137
35,95,72,77,145,135,269,313,121
35,90,109,104,154,122,233,268,96
35,94,111,107,181,120,227,272,94
35,98,117,116,177,122,229,262,90
35,97,120,121,169,111,235,276,96
35,122,121,115,159,110,238,285,129
35,128,98,88,154,117,270,282,134
35,125,95,87,110,120,318,303,145
35,132,94,74,125,114,323,332,151
35,147,88,79,163,107,314,322,167
35,134,75,87,159,98,304,296,141
35,154,66,89,162,101,281,308,151
35,150,67,90,167,86,241,268,137
36,145,63,91,168,92,257,230,127
36,156,59,88,139,99,272,232,114
36,152,58,92,141,123,274,311,126
36,144,59,92,136,117,268,322,121
36,155,71,100,140,129,266,335,127
36,159,79,99,123,127,271,352,139
36,138,90,107,147,120,279,368,131
36,162,92,102,189,93,301,327,141
36,147,94,109,192,102,312,352,130
36,146,93,108,196,98,342,383,143
36,147,91,113,208,96,331,414,142
36,142,79,105,195,97,308,411,150
36,114,86,100,165,99,295,403,130
36,128,93,93,166,83,294,371,130
36,122,95,82,157,97,236,330,114
36,103,89,75,150,98,215,278,96
36,117,92,73,153,100,272,270,83
36,129,93,78,144,111,271,277,90
36,125,91,71,139,114,266,247,86
36,125,82,72,174,115,263,291,90
36,130,90,76,163,128,269,286,92
36,122,102,76,165,129,236,314,91
36,125,94,69,170,122,231,300,91
36,116,93,76,171,121,247,327,101
36,109,90,75,134,103,275,300,100
36,105,88,81,157,90,264,297,100
36,101,71,103,159,87,270,235,100
36,99,89,124,174,85,273,247,101
36,100,90,120,168,87,260,215,98
36,102,101,120,168,95,238,203,96
36,103,96,112,148,107,260,221,103
36,103,101,98,141,109,246,244,105
36,82,87,72,127,105,247,253,102
36,79,80,69,141,113,245,281,102
36,79,67,66,146,104,256,296,101
36,73,68,72,148,84,233,293,92
36,77,63,65,135,93,229,300,91
36,73,57,64,130,111,232,291,87
36,66,54,70,135,114,278,256,81
36,67,54,70,133,118,333,283,77
36,75,52,77,130,124,390,270,80
36,65,51,75,144,114,432,258,72
36,73,53,77,180,100,451,270,79
36,86,69,81,188,98,461,273,82
36,87,72,82,184,96,450,258,81
36,92,77,69,203,86,425,269,93
36,93,81,63,201,85,402,264,93
36,89,85,66,170,95,400,247,89
36,73,78,54,143,83,362,273,84
36,101,75,57,144,94,338,275,104
37,95,71,66,134,97,322,263,95
37,94,67,67,122,96,304,261,97
37,93,61,63,136,92,295,259,101
37,101,56,68,146,94,318,246,102
37,78,57,63,144,77,303,212,95
37,79,59,75,151,87,322,237,109
37,93,53,76,158,90,330,239,108
37,104,59,88,159,85,327,225,115
37,104,57,89,169,83,320,254,125
37,106,59,103,185,93,333,255,118
37,113,63,90,174,95,302,240,105
37,104,69,99,169,97,317,235,101
37,99,67,94,158,102,302,272,92
37,107,75,96,144,115,282,246,96
37,106,76,83,132,109,273,249,101
37,98,68,84,173,112,272,267,105
37,114,69,72,176,110,225,274,112
37,137,74,63,187,105,326,253,140
37,131,66,60,185,92,330,247,134
37,137,62,60,181,95,369,240,133
37,139,63,58,139,81,388,231,128
37,140,61,69,169,83,396,231,132
37,123,51,72,150,90,328,246,102
37,120,49,72,149,91,321,237,94
37,113,53,79,155,90,270,252,98
37,119,51,80,168,89,246,244,101
37,107,50,88,157,88,248,237,94
37,108,48,91,173,86,228,257,93
37,109,51,89,176,85,243,257,95
37,112,49,86,175,97,322,246,95
37,115,53,85,164,98,340,268,105
37,109,52,68,155,104,331,280,112
37,103,58,59,159,104,381,238,114
37,110,54,64,158,108,373,288,116
37,118,55,69,159,100,300,315,145
37,108,53,71,167,102,314,300,139
37,109,57,73,171,111,330,296,134
37,108,56,78,151,110,273,325,138
37,115,65,75,167,108,316,315,150
37,97,71,80,165,107,336,295,115
37,96,78,93,196,112,341,298,124
37,106,82,99,189,109,394,312,135
37,104,89,95,197,117,392,279,123
37,102,95,107,204,117,357,283,116
37,106,98,98,206,117,363,297,118
37,105,97,87,188,119,367,306,111
37,94,94,91,195,115,329,342,95
37,91,92,101,195,107,336,341,97
37,146,84,87,175,124,331,325,93
38,269,85,89,180,145,313,308,109
38,307,85,94,176,154,270,298,106
38,320,86,103,167,158,274,245,109
38,321,91,98,177,169,283,289,118
38,299,89,97,215,172,309,290,115
38,258,80,99,221,157,305,314,102
38,224,76,98,207,144,310,325,98
38,213,81,81,226,148,275,334,104
38,214,70,81,215,157,287,311,95
38,220,73,91,181,150,282,307,101
38,214,83,92,180,151,297,299,99
38,241,94,99,199,162,349,333,102
38,266,98,108,181,151,353,340,107
38,533,126,118,201,131,325,331,125
38,556,136,126,206,148,317,312,118
38,596,133,123,200,146,302,282,116
38,742,136,113,184,135,231,203,118
38,764,129,102,190,149,222,155,142
38,627,107,99,163,167,223,152,127
38,630,92,80,149,185,199,146,168
38,649,89,81,132,218,181,143,228
38,481,72,78,142,272,171,141,360
38,459,78,75,123,302,162,123,422
38,451,110,56,136,350,160,148,555
38,446,204,99,242,439,189,169,591
38,339,218,117,274,553,223,170,597
38,306,219,123,271,574,237,172,538
38,259,221,124,285,657,242,174,507
38,227,204,131,301,701,254,132,376
38,161,112,107,246,676,249,101,306
38,120,95,88,249,608,223,99,254
38,119,97,84,249,609,217,91,235
38,104,85,86,240,524,210,75,176
38,96,83,78,235,552,194,72,133
38,71,76,71,223,568,181,70,114
38,54,57,67,183,572,172,62,110
38,40,45,60,176,553,177,61,95
38,43,44,57,163,533,174,57,97
38,40,39,51,140,452,159,56,116
38,39,41,46,122,392,166,53,113
38,38,40,43,113,361,180,51,107
38,37,36,40,106,421,152,41,110
38,36,33,40,113,447,145,42,99
38,34,35,44,101,432,155,43,72
38,35,38,52,100,439,141,42,66
38,35,38,54,113,452,136,47,142
38,32,37,54,119,362,144,51,143
38,29,35,48,109,331,135,52,145
38,29,34,47,104,332,127,50,145
38,24,27,37,116,316,129,51,146
39,21,23,35,118,294,116,49,106
39,29,27,39,124,343,120,43,100
39,29,27,40,122,341,136,40,95
39,30,29,39,122,320,138,42,88
39,31,27,37,105,317,136,41,85
39,44,31,42,94,314,133,39,71
39,40,26,39,87,267,124,41,107
39,41,28,38,90,295,153,41,140
39,42,25,37,84,274,178,40,142
39,41,29,46,85,298,182,41,145
39,27,26,42,80,300,183,41,130
39,26,28,42,75,301,196,42,109
39,31,28,44,77,307,174,44,100
39,32,28,43,85,306,159,45,101
39,32,25,35,87,269,162,46,98
39,33,25,34,84,250,162,44,98
39,34,24,33,84,259,143,46,116
39,31,25,36,86,231,158,45,97
39,30,26,37,77,225,147,44,94
39,30,26,37,76,256,163,43,97
39,29,28,41,87,268,170,46,96
39,26,25,40,87,252,177,45,84
39,23,24,41,86,270,174,44,77
39,23,26,42,82,263,199,43,77
39,23,28,40,81,228,195,43,72
39,23,27,37,85,209,201,37,74
39,25,27,36,84,215,215,38,71
39,25,26,28,82,201,205,40,75
39,23,24,25,85,195,184,43,75
39,23,20,25,87,223,191,39,80
39,22,19,24,71,221,183,42,87
39,20,19,24,71,231,180,41,77
39,21,21,24,68,212,180,38,68
39,21,20,26,70,216,196,42,66
39,21,23,32,72,201,171,45,60
39,23,26,34,90,196,176,45,46
39,23,26,33,91,176,198,45,40
39,25,24,35,86,185,218,48,49
39,26,25,35,85,207,235,43,57
39,25,23,32,80,207,241,45,61
39,24,19,29,59,210,239,43,62
39,25,19,29,57,234,208,43,60
39,22,17,28,61,224,190,42,55
39,25,15,28,83,207,141,39,55
39,25,16,27,85,193,140,38,54
39,27,17,27,85,185,138,41,54
39,25,18,27,83,198,134,41,54
39,26,20,25,92,203,120,38,45
39,22,20,23,73,198,117,36,34
39,20,20,24,101,224,132,31,24
40,18,19,25,105,231,137,27,52
40,20,18,24,105,203,147,24,53
40,20,19,25,94,197,153,23,54
40,21,21,26,91,201,176,26,55
40,23,20,26,71,233,165,34,54
40,25,22,24,66,230,183,36,40
40,23,22,26,77,216,181,39,39
40,24,25,34,79,251,188,41,56
40,24,25,35,84,248,168,39,56
40,22,26,33,78,207,182,37,57
40,19,24,34,76,206,182,42,51
40,21,27,35,65,217,199,44,52
40,19,24,27,64,179,186,47,33
40,17,23,24,61,182,186,50,33
40,18,23,27,71,197,186,51,32
40,19,23,25,80,204,173,48,27
40,17,19,23,80,208,166,44,23
40,18,19,24,80,206,169,42,48
40,19,18,30,78,202,172,39,51
40,18,17,29,66,205,153,33,52
40,19,19,29,58,189,155,32,51
40,18,19,28,54,184,129,32,53
40,16,19,29,63,194,129,28,33
40,17,21,24,62,201,129,31,26
40,21,25,30,85,184,158,33,34
40,20,27,32,86,191,154,30,48
40,20,26,33,88,191,163,30,48
40,19,26,33,94,182,174,35,48
40,19,25,35,102,176,177,35,48
40,15,22,30,84,170,163,36,45
40,13,20,26,77,167,156,38,31
40,15,20,30,80,169,161,40,30
40,19,19,29,68,159,157,36,35
40,21,17,26,61,161,169,38,54
40,23,15,25,64,177,162,35,55
40,24,15,25,74,193,156,33,56
40,23,16,21,70,195,169,30,56
40,21,19,22,70,231,165,36,51
40,18,22,26,70,225,154,30,32
40,16,22,26,68,209,144,32,27
40,17,22,34,64,209,187,38,25
40,17,24,34,70,210,162,40,25
40,17,22,34,73,190,186,40,24
40,19,23,34,71,206,188,41,22
40,21,22,36,73,201,191,39,24
40,20,20,32,70,176,168,31,21
40,20,18,33,78,194,176,37,20
40,19,21,35,77,179,151,35,25
40,22,25,41,86,195,152,38,26
40,21,27,40,93,200,148,42,26
41,24,28,41,97,205,127,43,26
41,23,29,41,87,165,128,41,25
41,24,26,41,83,170,144,38,22
41,21,23,37,78,162,156,38,21
41,22,21,38,67,166,158,36,20
41,20,23,41,76,170,155,37,22
41,20,26,41,80,171,176,40,24
41,21,26,39,83,161,162,39,24
41,22,24,34,76,136,147,39,25
41,23,28,34,76,124,164,42,26
41,26,29,34,74,113,174,44,26
41,25,24,31,66,130,152,37,24
41,24,27,32,65,139,149,38,24
41,22,26,34,75,151,163,36,20
41,21,23,32,85,173,173,36,20
41,17,19,25,80,178,164,39,20
41,18,21,26,88,185,187,48,21
41,19,20,25,86,202,200,57,22
41,18,21,23,89,208,204,57,24
41,18,19,23,91,203,181,58,27
41,21,22,25,87,199,181,55,46
41,20,20,23,81,191,153,58,47
41,20,20,23,90,197,167,52,49
41,21,20,27,91,184,151,52,50
41,19,22,28,84,179,166,50,48
41,16,21,30,89,187,187,49,30
41,18,23,29,92,182,202,40,30
41,16,23,34,83,152,183,39,27
41,15,23,32,72,147,193,36,24
41,18,23,31,77,162,191,36,23
41,18,21,29,75,163,185,35,21
41,17,19,29,67,160,171,35,18
41,19,21,26,67,161,180,47,19
41,20,20,24,65,155,188,51,20
41,18,20,23,59,133,189,52,21
41,18,19,23,59,125,181,52,21
41,17,21,24,71,144,225,52,24
41,15,17,21,76,137,220,43,23
41,13,20,23,79,147,213,40,22
41,15,21,25,79,154,223,40,22
41,16,25,29,83,168,228,40,22
41,19,25,28,84,166,188,39,20
41,19,26,28,85,180,181,37,20
41,18,26,33,93,185,170,37,21
41,18,25,34,90,190,148,37,25
41,17,22,32,92,184,136,55,26
41,21,22,41,94,175,136,64,33
41,25,23,43,104,173,156,64,35
41,30,24,47,99,170,151,90,40
41,36,25,47,100,164,153,97,42
42,66,31,46,107,175,200,135,61
42,77,34,45,110,196,219,219,72
42,91,34,48,108,219,225,292,104
42,105,36,43,118,216,262,341,126
42,121,43,50,126,290,287,378,137
42,140,70,63,136,298,284,455,163
42,169,80,69,143,310,308,443,193
42,204,83,72,153,323,339,438,200
42,271,95,88,213,353,381,511,225
42,332,114,105,237,298,411,572,284
42,345,112,116,255,287,437,698,281
42,424,127,124,332,267,437,775,330
42,497,164,176,419,264,515,822,413
42,503,166,173,409,232,502,778,409
42,475,161,164,416,244,481,776,385
42,466,153,159,437,240,493,666,386
42,403,150,158,416,248,512,598,338
42,320,124,101,331,224,448,619,233
42,275,127,113,333,223,467,659,215
42,336,138,117,326,209,480,686,236
42,360,148,124,290,204,449,656,236
42,356,141,126,259,176,428,659,253
42,340,130,127,278,251,402,562,246
42,347,127,126,279,242,377,582,260
42,292,107,124,272,242,348,534,252
42,273,103,135,296,250,398,559,263
42,272,104,136,332,266,390,540,244
42,259,123,158,341,174,374,540,243
42,230,124,164,336,174,346,487,239
42,218,124,161,332,164,379,452,228
42,201,121,151,306,160,347,406,216
42,183,128,151,255,160,334,401,212
42,190,106,125,226,164,355,469,222
42,228,93,105,206,176,382,443,240
42,214,89,113,191,175,392,404,213
42,209,80,98,186,164,402,425,203
42,208,63,82,202,155,429,422,208
42,217,83,94,199,154,417,370,201
42,186,98,123,234,142,442,422,164
42,195,112,120,231,147,430,466,161
42,186,119,134,257,161,403,432,157
42,194,119,134,241,169,392,429,151
42,177,111,129,229,167,383,487,142
42,161,97,101,183,170,326,439,133
42,156,87,98,189,160,296,406,135
42,170,90,79,139,140,322,439,155
42,168,97,88,132,111,374,444,156
42,162,93,97,174,116,414,360,152
42,170,94,103,206,112,402,356,163
43,165,95,109,214,128,427,364,166
43,172,98,115,223,135,404,377,157
43,154,90,113,219,137,347,360,145
43,158,107,119,206,131,345,350,150
43,145,109,124,176,119,361,323,138
43,142,107,116,175,113,360,308,141
43,111,102,111,200,109,348,229,126
43,112,95,106,205,116,332,242,124
43,103,79,91,215,127,282,236,115
43,109,91,78,213,127,292,249,111
43,113,86,81,201,117,234,251,110
43,116,83,78,175,115,265,326,109
43,112,85,91,181,108,281,335,110
43,114,90,88,178,100,283,373,126
43,119,76,89,181,116,304,387,125
43,122,82,87,190,124,316,386,128
43,126,91,87,196,131,308,326,125
43,139,93,81,205,133,302,303,132
43,133,87,98,182,144,302,272,118
43,145,90,109,206,133,249,263,132
43,133,85,106,207,135,257,313,123
43,146,78,111,197,135,254,331,124
43,158,84,113,195,130,277,348,127
43,166,83,91,192,109,293,359,127
43,146,77,73,159,120,330,372,116
43,156,81,84,165,136,356,328,118
43,154,75,81,190,128,352,304,135
43,140,75,73,169,133,364,285,127
43,144,73,82,166,132,367,260,131
43,153,76,85,170,125,365,209,144
43,147,78,84,164,97,354,213,141
43,129,76,86,125,96,343,265,127
43,127,74,80,120,94,303,278,137
43,112,79,74,117,89,290,271,129
43,94,76,79,125,97,247,282,107
43,88,68,78,143,117,245,294,113
43,108,76,75,147,120,229,260,117
43,104,72,75,149,118,229,226,114
43,103,65,76,174,126,241,222,113
43,118,70,63,180,123,266,266,122
43,122,70,53,157,106,237,244,116
43,105,62,51,158,108,283,235,108
43,99,57,63,172,121,302,253,94
43,105,57,67,144,118,295,266,98
43,102,53,67,126,108,316,245,109
43,100,53,66,142,105,311,279,109
43,111,53,73,162,109,271,285,115
43,111,54,64,155,98,250,312,127
43,106,54,56,153,98,255,332,132
43,99,56,54,171,102,220,316,120
44,93,57,58,195,101,212,287,122
44,95,67,76,179,96,226,292,116
44,108,68,77,182,98,241,292,101
44,109,73,79,186,94,303,261,103
44,112,80,84,172,95,291,276,106
44,129,87,97,127,100,309,298,120
44,128,80,84,126,104,312,320,116
44,121,91,89,119,99,311,303,125
44,121,90,96,115,112,237,328,121
44,130,80,93,118,115,245,336,117
44,124,77,80,137,109,231,308,98
44,119,79,74,140,112,245,275,101
44,117,66,75,154,113,236,268,98
44,125,68,75,152,101,266,241,89
44,119,71,86,150,92,265,243,87
44,110,66,84,142,99,289,276,86
44,108,60,88,153,87,271,283,93
44,111,66,90,148,112,286,300,94
44,115,61,97,182,126,262,303,101
44,107,69,106,275,158,333,272,114
44,117,70,110,325,170,323,293,121
44,122,71,110,326,178,346,311,126
44,119,65,104,322,170,330,298,127
44,112,62,93,314,166,323,290,137
44,125,58,86,244,141,248,292,136
44,128,53,84,173,131,256,256,136
44,121,62,88,159,124,240,228,130
44,119,75,93,173,125,273,216,125
44,113,82,96,182,126,281,232,106
44,103,79,87,177,127,280,229,96
44,87,84,93,182,133,265,262,87
44,117,84,88,183,142,265,254,111
44,119,76,79,168,144,256,247,131
44,118,68,73,159,141,263,250,134
44,116,64,68,154,148,284,249,133
44,115,57,64,136,140,306,252,138
44,91,48,57,127,134,310,260,113
44,85,53,65,126,134,363,264,91
44,113,66,70,117,131,375,250,92
44,110,66,70,121,120,388,262,90
44,119,66,62,130,116,385,222,93
44,124,72,68,135,114,385,217,95
44,137,78,80,155,106,324,209,101
44,124,64,81,157,106,348,215,97
44,131,70,84,159,106,315,232,105
44,128,80,92,152,105,305,225,106
44,121,85,120,190,98,334,233,110
44,119,92,113,182,98,337,248,109
44,115,104,110,200,97,339,261,115
44,110,108,108,211,104,343,231,110
44,123,103,109,211,110,381,255,122
45,131,102,75,194,116,365,275,126
45,118,96,70,202,109,384,263,121
45,141,90,77,176,127,357,277,129
45,152,98,87,158,122,373,328,147
45,201,102,88,181,124,357,358,210
45,202,116,96,223,145,380,345,210
45,245,116,111,248,162,438,371,221
45,242,118,107,262,164,458,350,215
45,243,116,116,277,185,486,302,209
45,192,117,122,304,201,489,249,134
45,222,132,132,382,204,458,290,154
45,227,135,140,381,222,406,257,139
45,232,140,154,378,231,433,251,154
45,255,142,162,423,235,386,266,232
45,262,144,171,417,227,380,319,238
45,250,126,167,331,216,413,277,225
45,239,119,157,312,201,382,277,247
45,249,127,177,331,181,334,332,270
45,215,122,175,260,148,361,331,225
45,238,123,160,230,143,390,300,232
45,231,113,154,206,146,359,291,241
45,230,113,151,206,171,368,288,267
45,215,94,112,181,242,379,208,244
45,263,96,104,226,344,356,188,376
45,271,118,126,288,393,296,140,487
45,326,158,146,370,505,305,137,512
45,317,168,154,382,543,311,130,502
45,315,167,161,383,531,258,127,514
45,285,163,155,363,521,244,117,416
45,264,149,144,323,632,237,89,282
45,180,107,131,246,636,211,104,236
45,163,116,186,315,695,235,120,234
45,147,117,194,329,770,259,125,210
45,133,118,202,345,803,255,125,210
45,112,123,219,368,834,257,134,208
45,109,122,222,371,805,260,127,192
45,88,96,174,301,756,208,103,157
45,82,94,157,309,750,172,98,144
45,83,93,144,281,687,185,101,151
45,69,72,103,239,534,159,81,130
45,61,63,80,204,481,147,67,125
45,55,57,69,206,486,174,69,135
45,49,53,58,145,377,171,64,125
45,42,55,58,142,382,162,61,117
45,41,52,60,140,388,209,69,110
45,46,50,60,142,408,207,68,118
45,46,57,62,120,350,190,61,132
45,47,58,66,129,356,194,61,147
45,41,52,58,125,362,231,57,140
46,43,52,55,112,356,207,58,140
46,39,53,58,110,344,214,58,132
46,38,42,51,125,378,216,63,124
46,36,38,45,123,358,219,63,107
46,35,30,40,132,374,194,60,102
46,34,29,40,137,357,189,51,126
46,34,29,41,132,417,182,55,158
46,33,29,44,113,369,168,47,139
46,36,29,45,112,410,169,43,138
46,42,36,49,99,396,149,48,137
46,51,67,77,106,398,159,57,125
46,51,71,76,116,328,185,62,81
46,51,73,77,138,409,193,67,79
46,49,74,76,133,366,188,70,79
46,45,71,75,134,345,208,69,93
46,32,43,47,123,327,196,64,72
46,41,44,60,130,332,192,61,85
46,42,45,58,104,230,189,55,90
46,40,43,58,110,239,210,53,100
46,42,44,59,110,241,191,55,90
46,45,48,62,117,270,226,63,90
46,39,40,48,102,259,208,57,75
46,41,36,46,108,251,211,63,114
46,41,36,47,108,261,183,64,108
46,39,36,47,110,256,179,65,107
46,34,30,41,133,279,146,58,109
46,27,31,37,131,300,140,55,113
46,25,30,40,130,340,133,48,83
46,24,29,38,123,322,133,46,77
46,26,30,40,120,325,172,56,84
46,27,29,43,82,286,152,51,81
46,27,28,44,86,295,152,57,88
46,26,31,41,84,258,153,57,76
46,28,29,37,82,276,167,56,75
46,31,30,34,83,275,137,40,64
46,33,34,27,91,277,154,45,91
46,33,31,28,85,228,183,43,82
46,31,28,26,76,232,182,43,83
46,30,29,29,84,228,198,44,81
46,28,35,31,92,229,197,53,86
46,28,34,35,94,241,197,53,74
46,30,35,34,97,256,186,53,75
46,36,39,39,105,271,218,55,79
46,36,39,39,107,259,212,59,81
46,34,29,39,103,254,204,51,90
46,31,26,37,103,229,207,54,76
46,30,25,37,115,242,204,55,73
46,23,26,33,113,231,177,55,68
46,26,28,32,108,243,160,52,67
46,27,29,31,107,251,169,54,69
47,30,29,31,98,263,224,56,85
47,28,28,31,90,252,226,56,87
47,28,25,31,89,256,265,58,87
47,28,24,29,102,260,270,58,91
47,29,23,26,102,256,274,59,89
47,28,23,28,105,258,228,52,72
47,28,23,26,98,261,216,50,77
47,27,22,29,100,242,170,43,74
47,29,23,36,90,222,162,43,85
47,25,22,38,86,210,163,40,70
47,25,24,40,89,195,177,42,71
47,27,28,41,89,178,179,45,71
47,34,26,42,108,187,180,48,109
47,34,28,40,109,206,214,57,102
47,35,29,38,111,230,216,58,104
47,37,30,36,116,275,233,59,104
47,35,27,38,123,291,252,61,107
47,30,28,36,104,285,265,62,74
47,25,25,32,95,269,243,54,81
47,25,26,38,93,258,241,54,80
47,25,24,39,105,268,209,50,81
47,29,26,39,106,262,202,45,77
47,28,24,38,105,275,191,42,77
47,31,28,40,107,272,184,42,63
47,30,27,34,112,281,182,41,62
47,28,27,31,90,215,195,47,60
47,24,26,29,76,219,196,46,47
47,25,28,34,87,220,180,55,39
47,19,23,32,86,215,186,57,47
47,20,23,32,77,229,178,58,53
47,19,22,33,75,231,164,54,52
47,21,21,32,75,214,139,55,52
47,19,20,25,64,192,135,44,49
47,20,23,30,72,252,159,43,60
47,20,27,32,77,233,166,41,56
47,22,32,33,80,249,160,40,59
47,20,31,33,83,259,178,41,60
47,23,32,38,98,275,184,40,61
47,23,32,34,92,246,175,38,66
47,25,29,30,90,244,165,38,69
47,24,23,29,91,235,166,36,67
47,24,23,31,87,254,192,39,66
47,21,22,26,73,260,188,47,69
47,20,25,35,84,302,172,46,46
47,17,23,38,88,315,172,45,62
47,17,25,41,89,322,180,46,63
47,19,28,41,94,302,145,47,62
47,21,28,44,93,314,151,51,60
47,23,27,36,83,258,168,53,64
48,22,28,34,82,275,179,54,54
48,23,30,32,96,259,169,56,53
48,25,30,32,92,250,168,55,54
48,25,31,27,91,211,176,43,54
48,23,30,33,97,206,178,43,49
48,24,29,33,99,165,175,44,36
48,28,27,29,84,191,179,41,43
48,28,25,28,80,193,172,39,43
48,28,23,33,90,201,159,40,42
48,29,21,30,93,207,170,37,41
48,31,24,33,92,221,176,38,42
48,26,24,36,92,233,211,51,43
48,27,24,37,96,250,213,55,63
48,28,27,37,86,256,218,57,66
48,28,28,37,89,312,199,59,68
48,26,28,35,90,298,187,58,67
48,30,28,35,102,288,155,47,79
48,27,29,35,101,283,148,46,69
48,27,26,32,102,283,164,44,67
48,23,24,31,91,206,153,45,64
48,23,23,30,91,241,207,44,67
48,19,24,29,71,224,202,49,59
48,21,21,29,77,236,217,45,56
48,19,19,26,90,261,207,43,57
48,22,20,31,98,266,223,41,59
48,24,18,31,95,244,177,40,57
48,26,18,32,106,269,172,34,38
48,24,19,36,115,267,150,41,32
48,31,30,41,109,255,146,45,54
48,30,30,36,109,262,137,43,54
48,29,33,37,111,266,128,44,56
48,29,30,36,102,272,127,44,56
48,31,30,33,100,269,161,38,60
48,24,21,26,93,264,152,37,41
48,22,21,28,83,258,156,41,58
48,22,17,29,82,266,156,40,58
48,20,18,28,86,236,158,40,61
48,17,21,28,71,219,167,41,59
48,17,22,32,71,200,167,38,59
48,17,24,32,76,216,164,34,39
48,16,25,33,82,190,194,39,35
48,18,27,33,89,242,223,44,61
48,19,25,29,90,248,200,44,63
48,19,24,29,96,250,205,46,63
48,22,22,29,92,236,206,47,64
48,25,23,39,102,276,192,49,64
48,25,23,41,93,229,163,44,36
48,23,22,41,93,238,172,42,29
48,24,27,39,86,233,183,42,44
48,27,31,46,96,277,177,47,53
48,26,30,37,97,290,175,48,55
49,26,30,35,101,294,191,50,56
49,27,32,36,100,287,204,50,57
49,28,29,36,100,282,188,50,45
49,24,26,32,97,237,187,45,32
49,23,26,33,79,160,186,37,27
49,22,23,36,84,191,217,40,25
49,21,24,39,90,192,203,41,24
49,17,24,39,96,242,205,40,21
49,18,23,34,90,242,207,40,20
49,18,24,33,98,255,202,40,33
49,20,25,29,89,236,149,34,52
49,21,22,27,94,243,137,37,56
49,24,22,27,101,223,146,43,61
49,23,22,33,106,229,139,48,61
49,23,22,35,100,250,150,47,55
49,21,22,36,101,241,143,47,39
49,21,22,35,95,253,139,46,33
49,21,19,36,90,243,126,40,24
49,21,20,31,85,242,172,35,25
49,22,19,31,90,217,153,33,24
49,25,19,32,87,227,178,34,24
49,24,22,31,95,213,180,31,26
49,22,22,30,94,190,187,36,51
49,25,23,32,93,210,151,39,54
49,24,23,31,95,201,159,39,55
49,21,25,30,92,189,163,39,56
49,22,24,32,77,187,169,38,55
49,21,24,30,72,194,173,34,35
49,17,22,28,68,168,193,31,29
49,19,24,27,57,167,201,37,30
49,19,23,27,63,161,185,38,28
49,17,23,23,65,142,175,39,30
49,19,22,26,92,195,192,40,28
49,19,23,28,99,204,185,39,30
49,16,20,26,102,201,172,34,28
49,17,20,26,104,225,163,31,27
49,19,19,28,107,226,162,30,26
49,17,18,26,91,186,132,27,24
49,18,19,27,93,217,116,29,20
49,19,18,29,88,213,127,28,20
49,20,20,28,88,194,127,30,20
49,18,21,26,88,198,125,32,19
49,19,23,25,75,200,117,33,19
49,18,22,22,65,182,132,37,22
49,17,21,22,69,206,126,38,22
49,18,19,24,72,207,122,35,22
49,17,19,23,68,209,119,32,23
49,19,17,22,71,208,124,30,25
49,19,18,24,73,184,84,24,23
49,18,20,25,79,176,68,21,23
50,16,21,26,70,176,59,21,23
50,15,21,26,76,172,59,22,21
50,14,23,29,93,210,56,27,22
50,12,31,37,150,224,61,28,24
50,14,34,38,158,242,60,28,25
50,14,34,38,159,242,61,29,25
50,17,35,40,158,237,61,29,26
50,17,34,40,151,195,43,23,23
