3,73,80,167,587,1002,565,167,90
3,82,93,197,604,982,579,173,94
3,74,92,189,492,882,460,139,82
3,79,112,189,435,832,423,128,77
3,78,112,179,416,808,412,120,74
3,65,105,170,380,723,376,98,53
3,52,94,127,244,577,193,47,27
3,50,88,99,259,496,142,41,29
3,35,57,78,256,445,102,36,27
3,32,51,76,245,427,92,35,26
3,32,47,75,243,415,82,32,23
3,26,43,70,226,346,76,28,22
4,22,38,75,248,313,77,23,18
4,33,38,90,228,263,74,20,22
4,36,39,103,266,267,86,23,22
4,34,40,106,265,272,89,24,23
4,33,40,107,266,271,96,23,21
4,35,45,106,230,251,107,25,20
4,29,47,101,239,303,123,26,15
4,25,47,88,199,385,168,30,16
4,26,45,85,195,389,171,30,16
4,27,46,85,191,412,222,43,22
4,25,40,76,168,395,226,42,22
4,21,27,57,160,360,219,41,21
4,22,25,52,156,365,186,39,22
4,25,25,48,156,381,190,39,23
4,23,22,46,157,373,178,27,18
4,23,21,45,156,375,168,27,19
4,22,20,42,111,372,181,27,20
4,22,22,47,130,355,209,24,19
4,22,31,60,136,372,212,26,19
4,22,34,63,134,358,178,22,19
4,22,34,63,134,359,183,25,21
4,23,34,55,122,341,175,26,20
4,22,32,50,116,290,143,26,17
4,17,25,38,116,260,132,25,18
4,24,33,57,150,273,131,26,18
4,24,36,64,177,256,125,26,15
4,24,37,66,196,250,117,24,16
4,23,39,66,182,226,103,25,19
4,22,36,65,181,199,105,24,20
4,16,30,60,182,181,81,23,20
4,19,34,73,234,191,134,27,23
4,41,66,104,256,199,136,40,33
4,43,68,105,258,212,142,41,32
4,45,70,105,258,204,141,42,31
4,45,70,98,240,198,138,43,30
4,44,66,84,164,182,94,38,29
4,24,34,43,98,170,98,23,21
4,21,27,40,111,109,87,20,19
4,18,24,36,104,104,83,18,19
4,17,23,38,105,83,89,16,19
4,18,24,41,114,88,79,15,17
4,18,24,35,115,96,60,17,14
4,18,24,36,105,86,54,17,15
4,17,24,38,104,83,52,15,14
4,17,22,40,105,85,31,16,14
4,16,22,39,101,75,25,17,15
4,15,24,38,89,48,24,15,15
4,14,24,37,77,46,23,15,15
4,14,23,34,69,42,23,17,14
4,11,25,32,63,30,20,14,14
4,13,23,29,46,23,19,14,15
4,12,19,26,49,23,20,16,15
4,14,19,28,53,20,17,16,17
4,13,21,27,55,20,16,15,17
5,14,23,28,101,22,16,16,16
5,12,22,27,102,21,16,15,15
5,13,24,28,101,20,15,13,14
5,12,22,25,100,20,15,13,12
5,12,20,24,99,20,15,14,13
5,14,14,17,43,18,16,12,14
5,14,23,20,40,19,14,12,13
5,15,24,18,36,19,16,13,13
5,14,24,17,40,16,15,14,12
5,14,26,20,39,16,17,13,12
5,12,27,18,38,16,16,15,12
5,12,22,18,40,15,18,15,11
5,12,21,19,41,14,16,14,12
5,15,24,25,32,15,18,13,12
5,14,21,24,36,14,16,13,13
5,16,21,24,39,15,17,13,12
5,16,20,24,36,15,19,12,12
5,17,20,23,37,15,19,13,11
5,14,17,17,48,18,17,12,12
5,15,17,16,44,19,18,12,12
5,15,17,16,44,18,20,12,13
5,16,21,16,46,18,16,14,13
5,16,20,16,46,17,17,13,14
5,16,22,15,32,15,18,13,14
5,16,22,24,41,15,17,16,15
5,15,22,23,39,15,14,15,14
5,14,17,24,39,16,15,15,15
5,16,19,24,45,15,14,15,15
5,18,21,25,45,14,14,17,15
5,18,21,18,39,15,14,16,16
5,18,20,19,40,13,16,17,16
5,18,21,19,37,12,16,16,17
5,17,21,19,39,13,14,16,17
5,16,19,18,38,13,19,17,16
5,16,20,17,37,13,18,15,15
5,17,20,18,35,14,18,14,15
5,17,19,17,36,17,17,15,14
5,16,17,16,29,18,17,15,12
5,16,23,18,27,19,12,14,11
5,16,22,18,25,19,15,15,11
5,16,24,18,27,18,13,17,11
5,17,23,21,28,16,15,16,11
5,16,23,22,31,16,15,17,12
5,14,18,21,31,16,15,17,11
5,14,19,22,33,15,16,17,11
5,15,21,23,39,17,16,15,12
5,13,23,22,42,17,15,16,12
5,13,23,23,37,16,15,17,11
5,14,23,21,39,16,16,16,13
5,14,22,21,39,16,15,15,13
5,12,18,18,32,15,16,14,12
5,14,16,17,26,15,16,13,11
6,14,16,16,29,17,16,10,11
6,15,17,16,25,14,15,10,11
6,15,19,15,29,14,15,13,11
6,15,20,15,30,16,16,13,12
6,15,23,16,29,17,17,14,14
6,15,23,16,31,15,16,13,14
6,13,21,16,31,16,17,12,15
6,12,20,17,30,16,15,10,16
6,14,19,16,29,15,17,12,16
6,13,19,16,31,15,17,14,14
6,12,18,14,35,15,19,15,15
6,12,18,16,48,15,18,15,14
6,13,19,16,49,14,18,15,13
6,13,19,17,50,15,20,15,14
6,13,17,18,54,14,18,12,14
6,15,17,19,54,15,18,12,14
6,16,19,20,48,16,18,12,13
6,17,15,19,47,17,18,12,13
6,17,16,20,55,16,16,12,12
6,17,16,21,52,17,17,16,12
6,14,18,21,48,16,17,16,11
6,14,15,17,47,15,17,17,12
6,13,16,17,47,14,16,17,11
6,12,15,17,40,13,13,16,11
6,12,15,14,38,13,12,15,13
6,15,14,13,40,15,14,15,14
6,15,15,15,36,14,14,15,14
6,14,19,17,41,14,14,17,15
6,15,20,16,38,16,15,19,16
6,15,20,17,41,17,15,17,14
6,13,22,17,46,16,15,16,14
6,13,21,16,46,16,15,16,14
6,15,17,18,50,16,15,13,14
6,15,17,18,51,14,18,13,15
6,16,17,18,49,13,18,15,14
6,17,15,20,45,13,17,16,14
6,17,15,21,46,14,17,16,14
6,17,15,18,33,14,17,18,12
6,16,14,17,29,14,15,17,12
6,15,15,19,36,15,15,15,15
6,13,15,17,38,16,18,15,16
6,13,17,17,41,14,18,15,15
6,12,18,17,40,15,18,13,16
6,14,17,18,44,18,19,13,15
6,15,16,16,39,17,19,14,12
6,17,21,18,36,17,15,14,13
6,17,18,17,30,19,14,14,14
6,18,18,17,33,18,14,15,15
7,18,18,16,30,16,12,16,14
7,17,19,17,35,17,11,15,15
7,16,12,15,38,17,16,16,14
7,16,13,14,42,14,17,17,13
7,15,12,15,43,14,19,16,12
7,13,14,15,43,14,19,15,13
7,13,16,23,43,13,19,18,13
7,12,16,23,39,12,16,16,13
7,15,22,24,36,14,16,15,16
7,17,23,24,36,14,13,17,17
7,17,22,24,36,16,16,16,18
7,18,21,17,29,15,17,14,18
7,17,22,17,33,15,17,15,17
7,14,16,15,36,13,17,15,14
7,13,18,18,37,12,17,15,14
7,12,17,18,36,11,15,15,13
7,11,15,17,37,12,15,14,14
7,12,16,21,32,13,16,13,15
7,12,15,21,31,14,16,14,17
7,11,13,19,30,16,16,12,17
7,13,15,19,35,17,15,13,19
7,12,15,20,36,17,14,12,18
7,11,14,18,47,16,13,12,18
7,12,14,18,46,15,13,13,17
7,13,13,18,44,13,15,12,17
7,12,13,18,41,12,15,12,15
7,13,13,17,43,13,15,13,16
7,14,13,15,40,17,15,13,15
7,14,15,15,42,18,15,12,15
7,13,16,15,41,19,11,11,15
7,16,16,17,41,18,12,13,14
7,15,16,16,39,19,14,13,13
7,15,15,16,35,16,15,12,13
7,15,16,17,34,15,15,12,12
7,16,16,16,33,17,16,13,11
7,14,18,14,34,17,17,12,11
7,15,18,16,32,15,15,13,11
7,15,19,17,35,15,13,13,12
7,16,17,20,40,15,13,13,11
7,15,15,21,42,14,11,13,12
7,14,13,22,43,14,11,15,11
7,14,13,20,45,14,13,13,11
7,15,15,20,41,13,14,13,12
7,15,16,16,39,13,17,15,12
7,14,17,19,39,16,17,16,12
7,15,16,18,40,16,17,15,13
7,16,20,19,42,20,17,15,14
7,15,18,19,72,20,18,15,13
7,17,20,22,85,21,16,14,13
7,18,20,21,88,22,17,16,13
7,18,20,22,88,23,16,15,13
8,19,17,23,87,21,15,14,14
8,18,17,23,63,21,16,15,15
8,18,14,24,50,21,16,15,14
8,17,17,22,45,17,16,12,14
8,16,18,21,44,16,17,13,14
8,13,19,21,44,17,17,13,14
8,14,19,20,42,17,14,12,12
8,12,19,16,38,16,18,12,13
8,12,19,18,47,18,16,12,14
8,12,16,19,61,18,16,12,14
8,12,17,19,78,39,16,14,14
8,11,16,20,80,43,16,15,14
8,13,18,21,80,44,13,16,15
8,14,17,20,76,44,15,15,14
8,14,18,18,67,44,15,16,13
8,15,17,16,49,27,17,15,13
8,16,18,19,53,22,19,16,14
8,14,17,21,95,19,19,16,13
8,14,17,21,102,20,17,17,14
8,17,19,22,106,38,21,17,15
8,17,19,25,135,69,28,19,15
8,17,19,27,183,105,29,19,15
8,17,20,30,171,111,108,20,18
8,18,20,32,193,149,149,20,19
8,15,21,32,191,150,172,23,18
8,17,20,31,177,144,189,39,19
8,16,21,32,154,127,196,39,18
8,16,20,29,152,135,176,48,18
8,15,20,31,132,128,153,50,17
8,18,22,38,154,130,144,50,18
8,16,21,38,149,128,138,39,18
8,18,22,37,138,129,153,41,20
8,17,23,38,143,119,150,32,18
8,18,25,44,148,102,140,28,18
8,15,22,39,129,108,126,27,16
8,16,23,39,129,108,109,33,17
8,15,23,38,106,102,95,31,15
8,14,21,35,96,110,131,31,13
8,15,21,32,120,108,161,30,14
8,17,19,39,140,105,175,31,15
8,18,21,45,167,161,181,23,16
8,17,20,45,169,182,186,21,17
8,18,22,47,174,263,174,21,18
8,17,24,44,159,270,151,21,17
8,18,24,41,140,281,141,21,17
8,16,22,33,119,260,146,20,16
8,15,23,33,121,246,127,20,14
8,15,22,34,113,154,122,17,13
8,16,19,41,111,142,117,18,13
8,16,22,41,119,121,118,32,14
9,18,27,57,168,125,122,99,17
9,19,27,59,170,198,173,111,19
9,19,27,58,171,214,175,114,21
9,19,27,53,161,209,178,117,21
9,18,24,52,166,209,175,115,20
9,17,20,40,126,205,178,69,18
9,14,18,38,124,144,181,49,16
9,14,17,34,120,114,171,42,13
9,14,18,34,119,107,169,34,14
9,14,18,32,103,98,165,30,15
9,17,26,55,123,84,152,23,16
9,18,29,60,139,134,120,22,17
9,18,31,62,146,138,119,23,18
9,19,29,62,147,143,169,23,17
9,19,31,67,155,143,171,22,16
9,17,25,47,120,139,165,21,17
9,17,23,41,104,86,157,16,16
9,20,22,43,113,98,163,15,17
9,19,23,45,112,120,136,14,17
9,19,22,40,111,125,140,17,18
9,18,22,40,115,128,147,17,17
9,18,24,43,112,131,143,17,18
9,15,26,39,100,130,139,19,16
9,16,27,39,94,122,176,23,18
9,16,27,61,290,187,185,23,17
9,22,35,101,429,326,187,29,18
9,22,37,105,459,366,192,34,19
9,20,37,105,461,373,199,42,22
9,20,35,105,466,381,159,44,22
9,22,36,95,377,359,174,46,24
9,18,28,50,214,250,195,43,23
9,17,21,40,151,194,203,50,22
9,20,23,40,152,186,201,45,21
9,21,26,41,141,172,195,42,22
9,18,24,45,150,230,181,43,18
9,18,25,45,157,246,178,44,18
9,19,28,46,149,246,179,32,19
9,14,25,45,140,238,174,29,17
9,13,24,44,141,237,169,28,16
9,16,26,47,128,184,204,26,17
9,17,23,44,102,187,225,28,17
9,18,22,42,103,197,219,27,17
9,21,26,50,128,209,216,27,18
9,20,28,53,143,218,232,28,18
9,20,27,48,147,216,228,27,18
9,20,29,50,156,254,211,57,22
9,20,29,50,152,249,199,58,21
9,23,27,47,161,319,227,118,26
9,241,68,92,262,513,242,346,142
9,275,89,109,291,647,212,369,183
10,277,92,114,307,635,188,384,189
10,278,92,115,310,642,187,391,192
10,283,92,118,310,607,196,384,196
10,154,71,109,398,566,238,237,147
10,85,56,98,391,476,246,205,106
10,171,57,96,390,476,250,184,123
10,468,89,106,409,478,352,430,336
10,725,369,182,486,597,613,716,611
10,986,566,368,528,564,746,880,821
10,1102,668,501,820,731,906,1102,894
10,1252,742,640,959,808,1025,1312,1032
10,1375,880,756,1088,947,1160,1355,1084
10,1485,1030,850,1128,948,1115,1357,1242
10,1460,1035,858,1152,1016,1119,1312,1209
10,1561,1044,799,1004,889,1103,1253,1368
10,1516,1046,697,926,853,1115,1202,1346
10,1433,958,662,883,795,1007,1199,1378
10,1352,774,570,992,786,1047,1209,1192
10,1305,666,479,953,731,1177,1204,1207
10,1224,634,547,1092,772,1167,1195,1296
10,1277,630,617,1147,816,1150,1173,1319
10,1322,773,590,1168,750,1151,1165,1324
10,1309,820,574,1107,756,1133,1080,1403
10,1326,881,587,1171,836,1020,1077,1395
10,1274,894,564,1094,845,974,1042,1201
10,1278,871,532,1092,785,921,1027,1204
10,1203,764,464,1062,806,1009,1072,1199
10,1244,695,447,981,749,1079,1153,1165
10,1329,776,474,968,619,1077,1251,1330
10,1310,765,553,958,627,1117,1212,1371
10,1256,758,538,925,725,1162,1216,1363
10,1314,813,584,865,719,1104,1201,1385
10,1344,825,608,983,740,1121,1235,1398
10,1237,687,612,972,715,1066,1181,1216
10,1265,661,538,1068,639,1045,1306,1217
10,1325,759,557,1072,613,1074,1327,1242
10,1291,679,560,1109,681,1032,1343,1265
10,1226,705,596,1113,769,947,1274,1299
10,1241,785,565,1064,789,1056,1334,1383
10,1299,782,532,929,854,1115,1239,1407
10,1257,797,537,986,796,1060,1213,1475
10,1280,863,546,951,729,1073,1149,1451
10,1261,935,568,944,651,1126,1236,1393
10,1276,931,565,959,668,1029,1199,1396
10,1214,942,642,1027,617,974,1250,1334
10,1156,888,719,1024,744,998,1250,1200
10,1182,968,716,1038,782,1061,1238,1203
10,1178,839,659,1002,769,947,1089,1289
10,1152,860,762,1051,748,931,1124,1275
10,1252,1042,790,1165,760,976,1072,1389
11,1335,1041,685,1112,688,1045,1128,1480
11,1267,919,709,1156,672,1086,1226,1468
11,1236,1065,808,1226,678,1119,1244,1405
11,1228,1023,743,1235,702,1144,1188,1423
11,1205,931,727,1145,659,1127,1256,1393
11,1175,946,736,1132,604,1113,1223,1313
11,1151,932,681,1075,593,1101,1126,1221
11,1314,805,587,1017,566,1163,1203,1327
11,1438,869,592,988,519,1221,1249,1304
11,1493,774,550,955,533,1282,1237,1257
11,1509,766,580,973,550,1189,1239,1258
11,1584,770,581,1014,524,1177,1242,1364
11,1442,747,559,954,564,1110,1165,1278
11,1358,614,512,883,588,1125,1108,1253
11,1309,632,461,898,572,1040,1148,1321
11,1246,683,453,881,571,1137,1116,1292
11,1154,741,488,858,616,1211,1169,1249
11,1160,741,517,911,595,1258,1178,1255
11,1110,746,497,898,575,1235,1218,1262
11,1018,708,492,886,616,1326,1098,1141
11,1133,615,450,922,669,1284,1075,1269
11,1186,689,411,896,652,1218,1038,1364
11,1289,721,332,850,645,1222,1112,1438
11,1287,736,322,895,632,1174,1164,1401
11,1314,735,395,917,633,1145,1198,1449
11,1285,743,462,916,599,1176,1197,1343
11,1236,605,470,962,544,1189,1222,1268
11,1102,586,471,949,568,1205,1188,1195
11,1125,763,601,994,629,1262,1139,1277
11,1189,784,564,942,612,1191,1129,1308
11,1135,813,528,930,627,1193,1137,1329
11,1235,813,517,936,624,1197,1101,1343
11,1276,780,556,935,608,1217,1096,1349
11,1314,727,463,907,533,1200,1094,1322
11,1195,781,472,1047,537,1249,1105,1270
11,1206,871,480,1019,471,1228,1123,1263
11,1156,893,485,965,465,1185,1133,1276
11,1199,935,457,943,460,1100,1131,1284
11,1175,945,499,970,527,1065,1154,1339
11,1195,896,477,739,550,1086,1143,1311
11,1181,748,501,734,613,1101,1124,1390
11,1160,778,519,736,702,1146,1232,1404
11,1196,758,523,767,690,1205,1281,1339
11,1195,677,480,680,660,1228,1255,1247
11,1262,654,519,752,635,1215,1268,1343
11,1282,677,505,729,602,1268,1252,1281
11,1404,784,573,833,530,1241,1147,1314
11,1340,789,590,906,616,1290,1080,1317
12,1344,756,568,885,662,1368,1074,1335
12,1347,814,586,920,708,1451,1102,1322
12,1275,860,588,958,844,1424,1107,1418
12,1181,749,546,941,942,1476,1196,1357
12,1211,850,586,955,960,1421,1237,1455
12,1252,958,648,1134,991,1319,1247,1480
12,1249,967,638,1133,994,1228,1242,1441
12,1373,1034,682,1139,860,1238,1236,1429
12,1435,1075,701,1121,787,1194,1105,1516
12,1455,1011,651,1085,731,1257,998,1424
12,1370,886,635,955,686,1312,907,1344
12,1452,962,622,923,622,1273,989,1417
12,1463,845,544,978,622,1253,1015,1391
12,1403,754,516,934,610,1330,1154,1280
12,1331,741,507,866,577,1255,1191,1262
12,1348,802,451,869,529,1178,1202,1376
12,1171,638,402,888,563,1231,1138,1251
12,1079,620,408,796,583,1174,1130,1297
12,1071,623,348,821,558,1124,1074,1339
12,1104,607,332,836,525,1119,1073,1383
12,1231,521,314,761,523,1138,1167,1346
12,1264,486,318,773,497,1080,1151,1386
12,1363,490,339,818,498,1125,1089,1262
12,1439,648,335,799,520,1038,1073,1273
12,1461,659,356,795,553,976,1160,1389
12,1321,696,391,842,550,1039,1092,1389
12,1370,687,406,809,586,1077,1107,1429
12,1339,723,430,767,607,1179,1130,1508
12,1297,655,436,760,546,1176,1150,1470
12,1284,650,459,780,515,1208,1086,1428
12,1295,600,490,819,498,1183,1044,1433
12,1243,599,484,803,582,1196,1021,1322
12,1185,630,457,816,556,1095,1118,1291
12,1159,567,433,791,574,1123,1070,1315
12,1132,658,395,766,604,1142,1057,1303
12,1192,679,360,695,632,1084,1062,1303
12,1186,717,378,691,495,1024,1072,1351
12,1295,747,381,648,572,1028,1118,1360
12,1345,744,460,767,660,1104,1216,1377
12,1369,661,517,799,702,1150,1261,1308
12,1417,883,550,860,731,1241,1300,1322
12,1457,972,549,896,739,1219,1312,1308
12,1307,909,528,917,661,1212,1159,1266
12,1262,913,502,841,566,1112,1067,1405
12,1290,907,474,847,550,1029,1023,1442
12,1297,762,467,833,556,1067,1025,1413
12,1363,708,543,814,592,1112,1052,1485
12,1494,741,632,951,681,1137,1190,1565
12,1468,790,702,1077,814,1112,1196,1402
12,1465,796,695,1048,887,1156,1209,1384
12,1449,751,673,1082,886,1047,1206,1442
13,1366,677,665,1165,904,1059,1112,1412
13,1210,646,636,1139,841,1009,1142,1326
13,1349,670,596,1120,829,1098,1189,1349
13,1262,714,693,1175,775,1126,1189,1272
13,1299,849,743,1138,764,1253,1234,1240
13,1290,869,790,1168,765,1207,1297,1281
13,1381,870,754,1162,805,1193,1336,1209
13,1286,854,749,1094,721,1165,1309,1291
13,1327,854,700,1157,745,1215,1283,1486
13,1251,820,775,1225,798,1146,1190,1464
13,1269,869,722,1145,816,1183,1137,1458
13,1295,913,752,1081,816,1201,1057,1588
13,1291,888,816,1117,806,1225,1170,1522
13,1319,918,873,1034,758,1201,1178,1398
13,1356,857,831,982,731,1150,1250,1403
13,1363,813,846,976,730,1102,1275,1407
13,1326,809,853,1003,748,1138,1192,1399
13,1268,854,797,1067,787,1173,1147,1399
13,1366,915,762,1150,817,1120,1244,1366
13,1332,890,713,1161,778,1154,1206,1360
13,1429,1025,767,1197,879,1274,1252,1452
13,1424,991,732,1159,839,1298,1312,1393
13,1417,993,776,1082,813,1189,1254,1318
13,1222,873,719,986,787,1147,1129,1369
13,1182,850,683,920,790,1139,1172,1284
13,951,662,541,826,596,1171,1163,1085
13,1004,757,573,815,646,1067,1120,1104
13,1092,750,452,762,629,1111,1095,1313
13,1126,785,466,824,589,1145,1170,1308
13,1234,941,471,817,580,1140,1159,1417
13,1284,944,506,786,592,1069,1185,1474
13,1309,944,601,859,548,1124,1192,1527
13,1392,923,708,959,646,1251,1215,1390
13,1454,981,759,944,753,1338,1154,1377
13,1339,837,778,973,725,1290,1112,1329
13,1379,821,749,1062,726,1262,1113,1328
13,1238,723,692,1051,757,1294,1065,1234
13,1117,659,586,1000,696,1194,1133,1251
13,1149,721,527,954,660,1146,1131,1217
13,1214,736,480,972,682,1185,1150,1275
13,1201,794,553,946,736,1203,1140,1229
13,1238,800,534,928,726,1174,1139,1201
13,1268,836,572,907,744,1175,1050,1263
13,1216,669,617,929,701,1137,1090,1262
13,1187,760,673,915,723,1128,1032,1189
13,1184,697,633,838,721,1080,941,1185
13,1322,833,597,759,770,1086,930,1330
13,1263,948,536,698,752,1053,839,1233
13,1180,970,470,715,830,971,708,1203
13,1187,994,387,618,973,1023,629,1162
14,1194,1194,399,737,1082,1085,653,1181
14,1028,1147,402,751,1144,1090,744,1043
14,959,1118,407,769,1233,1065,781,1057
14,952,1083,338,633,1178,1072,773,1042
14,831,966,310,613,1131,935,777,1000
14,624,672,224,422,1026,754,660,823
14,490,544,164,369,879,571,445,673
14,360,251,106,277,690,442,285,464
14,268,188,110,379,662,297,250,315
14,202,161,109,373,486,262,197,236
14,164,126,106,369,364,175,171,213
14,116,111,105,375,323,156,112,142
14,84,83,101,353,324,169,85,133
14,72,73,116,298,266,171,79,119
14,57,69,117,290,182,158,67,110
14,47,57,114,261,155,177,60,107
14,36,50,114,249,153,182,44,97
14,25,49,115,247,127,159,34,49
14,21,27,57,115,121,151,31,44
14,20,24,49,96,123,143,27,32
14,24,40,82,140,114,131,23,29
14,23,40,82,141,99,141,20,24
14,25,42,83,144,80,143,19,23
14,25,43,79,137,80,139,17,22
14,22,42,84,145,75,140,20,19
14,18,26,61,126,75,122,21,19
14,21,29,63,147,73,138,21,19
14,27,31,63,148,84,162,21,18
14,27,31,63,150,83,163,23,18
14,26,31,57,141,81,163,22,17
14,25,30,40,115,73,165,20,16
14,24,29,41,88,70,135,20,14
14,17,24,37,78,58,101,19,14
14,20,29,47,119,126,143,18,14
14,20,30,45,116,130,153,17,15
14,21,30,55,132,139,168,17,15
14,20,29,52,133,139,167,21,15
14,19,33,57,151,141,178,20,16
14,17,29,48,123,86,186,19,15
14,16,29,65,188,95,198,26,16
14,16,29,61,184,80,192,26,15
14,17,29,60,182,81,196,25,14
14,17,25,56,169,73,185,27,13
14,15,22,55,167,70,139,27,13
14,18,27,40,84,48,144,20,16
14,17,27,36,91,74,165,23,17
14,16,23,37,86,70,158,22,18
14,16,27,41,95,76,210,20,19
14,17,28,41,91,76,210,20,18
14,15,24,33,96,77,195,21,15
15,19,34,56,124,69,206,20,18
15,19,38,74,244,88,213,22,18
15,23,40,95,315,122,169,25,21
15,25,42,99,330,123,192,26,21
15,25,42,101,334,123,185,26,21
15,25,34,91,321,118,152,25,17
15,27,32,80,252,108,187,25,17
15,24,25,48,153,70,191,24,15
15,20,20,44,134,83,182,24,17
15,22,19,40,118,87,180,23,17
15,19,18,40,114,85,174,22,18
15,15,16,30,89,83,143,21,17
15,18,39,51,99,85,145,23,19
15,19,41,48,76,82,138,22,16
15,18,43,52,101,78,157,22,16
15,18,46,68,119,76,152,22,16
15,19,46,71,122,71,135,20,15
15,20,31,64,115,64,250,20,17
15,20,36,67,119,52,249,19,17
15,19,36,65,100,49,243,18,17
15,20,33,47,74,46,246,18,17
15,21,34,45,67,47,255,19,18
15,18,36,49,96,79,135,18,17
15,18,30,47,96,87,131,18,17
15,20,30,45,98,88,173,21,16
15,18,30,46,99,95,179,20,17
15,20,30,48,99,95,167,20,16
15,20,26,51,82,74,160,20,14
15,22,35,64,126,64,175,21,15
15,24,36,66,128,64,149,20,16
15,24,34,65,128,54,136,20,14
15,21,34,63,130,56,147,20,14
15,20,32,51,115,43,145,19,14
15,23,31,64,113,49,133,21,16
15,21,34,75,158,59,152,24,16
15,21,34,77,166,67,153,23,16
15,25,40,79,172,81,196,27,17
15,26,41,80,174,80,199,28,18
15,23,35,56,144,77,199,26,17
15,21,33,39,91,74,189,21,16
15,23,36,51,120,77,194,22,16
15,19,30,48,111,67,148,16,15
15,19,31,48,114,70,170,15,13
15,17,30,49,114,74,178,16,14
15,18,28,48,110,68,152,17,13
15,19,27,29,62,64,174,20,12
15,19,27,34,69,58,170,21,15
15,18,28,31,61,57,152,21,14
15,19,26,32,90,55,155,20,14
15,18,26,32,93,57,160,20,16
16,18,26,41,105,60,146,18,16
16,18,24,38,116,61,153,19,14
16,19,23,39,120,61,152,18,16
16,19,22,40,108,61,141,17,17
16,20,25,40,125,58,138,18,15
16,18,23,32,129,51,136,25,17
16,18,24,36,132,52,124,26,19
16,17,22,37,131,53,120,26,17
16,18,24,36,124,45,104,28,19
16,20,21,38,107,47,118,27,18
16,18,22,39,109,68,135,23,18
16,18,23,32,83,66,137,20,16
16,19,23,32,85,68,143,20,17
16,17,20,30,83,72,159,18,16
16,18,22,29,80,72,146,17,16
16,20,23,38,96,53,142,13,15
16,20,22,46,141,69,168,12,14
16,20,22,52,164,67,171,15,12
16,22,22,52,167,64,157,16,10
16,20,20,52,169,63,156,16,10
16,18,18,43,149,56,131,16,10
16,19,23,54,147,50,151,18,13
16,19,23,48,122,59,162,21,13
16,18,24,51,130,63,197,22,14
16,18,24,50,129,61,198,22,14
16,18,23,51,129,65,194,24,14
16,17,20,29,86,56,166,23,12
16,18,23,37,101,52,164,20,13
16,18,23,35,94,51,149,22,14
16,19,27,37,100,56,162,24,14
16,19,27,36,99,54,168,22,15
16,20,27,35,97,58,164,23,14
16,18,27,35,104,63,153,21,14
16,19,30,36,123,74,134,18,12
16,19,33,47,132,74,151,18,12
16,18,34,51,139,86,153,17,12
16,17,32,52,141,84,148,18,13
16,18,32,48,128,76,144,19,13
16,17,29,48,123,70,143,18,14
16,17,24,37,109,72,116,17,15
16,18,23,32,101,70,143,20,15
16,18,22,29,97,68,159,20,14
16,19,25,26,91,71,165,21,16
16,18,26,27,80,65,170,21,16
16,18,27,43,94,63,186,23,16
16,17,29,44,94,46,162,21,16
16,18,31,45,95,58,151,25,17
16,16,27,44,93,61,140,24,16
16,18,29,46,110,62,156,25,16
17,19,29,43,126,72,148,24,17
17,18,29,44,135,76,144,25,16
17,20,31,45,133,68,135,20,18
17,20,30,45,132,73,158,22,17
17,19,26,41,115,105,142,25,17
17,17,22,29,90,104,132,26,16
17,19,23,40,157,112,135,27,16
17,17,18,40,163,114,131,27,14
17,18,21,41,163,108,108,24,13
17,16,23,42,159,88,94,23,14
17,17,23,40,153,81,99,21,13
17,17,22,26,76,70,95,41,16
17,18,22,23,61,78,99,58,19
17,19,20,21,62,127,100,64,22
17,23,21,27,72,212,136,67,22
17,22,22,29,90,250,158,69,22
17,21,23,27,82,254,173,59,21
17,20,24,34,96,258,180,43,19
17,19,23,35,117,241,189,36,17
17,15,20,32,128,191,199,34,16
17,16,23,34,130,154,186,41,16
17,17,21,36,136,166,196,49,15
17,19,22,36,135,180,194,49,15
17,18,22,34,117,187,186,49,13
17,21,25,36,103,188,208,46,15
17,20,23,33,92,202,219,37,15
17,20,25,36,132,212,208,24,16
17,21,26,31,128,225,207,28,16
17,22,26,31,129,224,222,29,17
17,41,26,28,134,213,192,44,19
17,86,27,35,140,208,176,73,20
17,93,27,34,115,253,199,76,22
17,95,25,32,114,241,202,77,23
17,96,27,34,126,267,203,79,23
17,90,28,35,118,264,187,72,20
17,50,26,30,106,253,184,49,20
17,36,24,30,103,203,157,55,22
17,30,24,34,132,208,167,80,23
17,31,23,33,126,177,155,106,23
17,31,23,32,129,227,149,109,24
17,32,22,33,135,227,147,108,24
17,30,22,30,122,213,202,105,20
17,90,25,27,87,200,239,92,22
17,121,25,29,86,245,286,192,31
17,128,34,42,96,368,299,194,38
17,139,41,45,124,617,338,210,67
17,145,42,48,125,634,312,221,107
17,120,40,47,135,645,287,220,111
17,204,48,50,137,639,282,143,179
17,443,77,49,145,613,355,199,284
17,646,133,83,228,588,493,330,417
18,877,214,152,463,736,726,612,604
18,1029,443,306,590,864,834,814,855
18,1149,605,478,848,982,931,1002,1001
18,1172,666,576,957,1014,995,1126,1181
18,1290,731,737,1108,1027,999,1263,1273
18,1292,877,830,1205,1009,1021,1251,1341
18,1368,1029,881,1289,960,1039,1261,1329
18,1308,1016,937,1207,894,1059,1228,1345
18,1392,1030,939,1231,880,1038,1189,1400
18,1302,1070,919,1139,836,1101,1151,1445
18,1330,1031,933,1019,752,1013,1188,1462
18,1273,951,995,1040,763,1061,1146,1519
18,1416,1139,951,1075,747,1060,1122,1568
18,1365,1177,942,1081,714,1086,1172,1440
18,1376,1127,903,1080,627,1120,1211,1434
18,1331,1125,823,1063,665,1162,1149,1445
18,1386,1050,660,947,652,1191,1178,1430
18,1329,811,615,941,605,1187,1258,1417
18,1357,816,647,921,620,1162,1240,1435
18,1361,885,576,896,644,1120,1129,1427
18,1407,944,667,957,630,1053,1150,1464
18,1410,915,671,966,603,973,1177,1487
18,1403,1022,666,1034,657,1006,1251,1461
18,1363,980,589,954,771,1086,1291,1468
18,1460,969,683,1033,784,1071,1284,1452
18,1379,893,634,1073,823,1095,1266,1365
18,1285,925,640,1072,839,1083,1181,1239
18,1374,937,659,1045,870,1073,999,1304
18,1341,944,701,1156,791,1012,1014,1304
18,1275,1015,620,1202,783,977,1071,1355
18,1337,1004,635,1176,766,1083,1113,1369
18,1363,1013,650,1191,748,1151,1173,1437
18,1183,896,684,1089,728,1155,1251,1341
18,1239,961,725,1100,698,1222,1196,1390
18,1142,844,761,1144,794,1240,1206,1343
18,1120,989,740,1167,797,1219,1185,1325
18,1137,960,744,1216,848,1186,1168,1275
18,1212,954,697,1308,869,1159,1122,1340
18,1159,952,628,1277,870,1106,1144,1299
18,1191,997,612,1146,829,1164,1125,1232
18,1250,845,627,1156,814,1120,1136,1219
18,1183,833,616,1132,755,1112,1108,1175
18,1211,1062,716,1054,709,1114,1132,1176
18,1230,1100,701,984,767,1092,1060,1200
18,1228,1131,719,1013,753,1098,1047,1271
18,1097,1108,671,986,752,1083,1050,1218
18,1145,1186,747,987,755,1074,1048,1231
18,1086,1009,800,1034,785,1072,1016,1129
18,1110,993,879,1056,744,1059,1024,1026
18,1201,887,859,1036,658,1026,1109,1057
19,1376,1025,886,972,632,1019,1140,1151
19,1344,976,832,947,627,979,1122,1227
19,1532,944,686,905,589,1017,1176,1351
19,1540,961,570,877,563,1083,1236,1394
19,1535,1033,588,853,624,1008,1140,1351
19,1431,925,572,930,642,1070,1115,1338
19,1402,895,533,925,610,1037,1217,1245
19,1170,915,521,925,615,1015,1213,1086
19,1084,814,553,947,619,1015,1166,1044
19,1080,760,549,1004,573,1064,1212,1030
19,1137,805,507,912,523,1083,1212,1079
19,1163,824,515,887,577,1163,1222,1082
19,1185,821,513,872,576,1208,1205,1181
19,1272,777,492,833,654,1191,1225,1253
19,1289,787,441,785,698,1203,1227,1311
19,1195,789,448,824,719,1155,1236,1196
19,1268,818,460,829,793,1166,1200,1296
19,1437,841,454,858,790,1083,1187,1295
19,1396,868,575,944,703,1130,1198,1273
19,1268,841,582,978,668,1092,1177,1151
19,1287,792,576,955,677,1056,1163,1153
19,1297,924,586,912,644,1033,1171,1229
19,1105,930,560,945,664,1064,1095,1183
19,1172,989,415,898,682,1074,1116,1144
19,1286,1026,388,834,687,1139,1069,1202
19,1237,988,438,830,717,1245,996,1234
19,1164,805,373,810,620,1229,967,1174
19,1201,740,352,699,539,1250,1018,1216
19,1119,604,360,631,537,1303,1063,1219
19,1063,496,416,678,577,1329,1107,1231
19,1046,551,384,726,568,1238,1220,1297
19,1034,602,397,698,539,1258,1214,1207
19,1046,618,420,708,562,1260,1218,1123
19,1101,608,480,818,604,1229,1133,1063
19,1126,710,434,753,618,1176,1070,1210
19,1208,750,421,710,633,1218,1047,1171
19,1232,695,411,730,641,1172,1035,1214
19,1221,704,394,782,686,1161,1018,1242
19,1179,695,337,731,710,1117,972,1274
19,1049,680,358,734,646,1085,995,1044
19,1001,663,387,741,594,1035,928,1025
19,981,683,421,798,647,1061,907,1010
19,862,674,437,744,612,1012,957,972
19,888,680,427,729,624,945,977,1041
19,972,657,444,767,622,951,1013,1074
19,986,620,404,797,612,947,1033,1124
19,1011,621,384,769,591,1024,1045,1199
19,1109,699,449,881,590,1100,1067,1216
19,1107,731,452,842,529,1182,1124,1194
19,1138,752,414,811,570,1171,1126,1191
20,1110,745,419,751,554,1188,1088,1134
20,1047,731,426,773,628,1108,1069,1093
20,1037,673,362,631,626,1118,1063,1119
20,1054,793,410,620,587,1091,1076,1194
20,1008,774,473,689,605,1120,1077,1229
20,1126,818,478,713,623,1137,1088,1387
20,1090,829,459,723,546,1222,1083,1289
20,1080,834,442,767,542,1155,983,1351
20,1186,776,391,826,566,1082,924,1296
20,1171,719,337,849,497,1071,1018,1239
20,1039,683,320,849,491,1113,1069,1104
20,1088,645,313,824,512,1059,1078,1134
20,1059,597,302,778,488,1121,1087,1050
20,930,533,307,817,486,1094,1055,1068
20,979,584,307,771,513,1104,930,1073
20,1042,570,381,822,522,1050,875,984
20,1012,609,429,819,517,1041,934,933
20,971,592,455,858,509,956,956,982
20,977,575,422,737,473,955,927,929
20,1026,523,426,732,482,1063,1026,1097
20,1006,521,413,718,535,1066,1051,1115
20,1134,562,365,753,485,1025,1019,1176
20,1176,615,329,716,590,1089,979,1108
20,1098,552,332,788,637,1195,977,1046
20,981,569,331,819,658,1140,918,941
20,1064,692,279,754,664,1138,904,1107
20,1114,666,285,759,691,1171,968,1243
20,1116,633,336,776,650,1079,1052,1231
20,1284,690,427,780,686,1086,1146,1368
20,1329,725,423,764,716,1066,1140,1342
20,1282,662,429,800,673,1109,1134,1336
20,1283,647,511,845,660,1139,1093,1268
20,1263,659,512,882,637,1169,1095,1271
20,1135,672,457,900,551,1111,1071,1140
20,1199,640,459,848,499,1071,1050,1193
20,1272,570,477,909,493,1005,1094,1102
20,1100,579,431,949,509,977,1119,1054
20,1173,626,396,937,522,1022,1089,1107
20,1192,579,383,884,571,1019,1093,1130
20,1148,587,375,923,526,1046,1084,1060
20,1008,574,391,850,612,1064,1033,1058
20,1062,583,364,703,600,1123,914,1106
20,1027,615,354,616,562,1107,938,1086
20,999,639,433,691,529,1085,927,1162
20,996,668,447,748,639,1085,941,1207
20,1011,665,417,768,537,1034,987,1155
20,958,645,395,753,562,957,1048,1090
20,1092,644,419,893,609,936,1031,1157
20,1138,630,374,884,606,920,1186,1185
20,1047,604,361,867,485,947,1185,1107
21,1178,658,369,835,471,939,1179,1275
21,1252,726,399,881,429,877,1167,1296
21,1262,669,410,832,441,939,1152,1385
21,1249,700,407,850,471,963,951,1268
21,1316,863,426,856,541,931,973,1348
21,1226,829,413,877,565,957,1002,1300
21,1257,763,378,877,580,984,995,1297
21,1120,815,411,890,513,922,996,1111
21,1126,815,457,876,524,917,1076,1181
21,1130,641,418,825,505,937,1212,1203
21,1160,674,438,855,541,1014,1171,1139
21,1072,753,465,894,527,1022,1200,1142
21,1092,706,434,843,528,1064,1256,1211
21,1089,763,396,788,488,1083,1197,1193
21,1037,747,430,811,453,1132,1069,1133
21,1160,763,441,736,464,1179,1070,1172
21,1258,690,412,686,507,1203,1092,1253
21,1304,664,382,622,539,1206,1074,1282
21,1338,539,362,609,554,1156,1157,1346
21,1426,558,353,588,628,1067,1218,1400
21,1245,569,319,662,659,1047,1297,1299
21,1187,586,331,678,711,1024,1246,1277
21,1135,692,329,714,704,951,1199,1250
21,1045,730,383,800,766,989,1148,1199
21,1026,695,441,826,791,1059,1027,1147
21,1157,769,441,770,751,970,901,1270
21,1206,807,461,737,669,1060,970,1298
21,1207,760,500,800,660,1087,998,1256
21,1293,748,467,738,548,1100,1056,1289
21,1320,789,405,688,439,1057,1131,1329
21,1362,819,432,744,403,1137,1132,1253
21,1322,794,442,749,424,1082,1055,1212
21,1342,782,407,706,498,1095,1110,1239
21,1332,757,405,749,550,1068,1037,1155
21,1255,726,393,736,518,1129,1000,1147
21,1158,588,372,745,564,1102,1026,1162
21,1080,554,368,756,576,1105,1037,1054
21,958,519,364,740,515,1079,948,947
21,840,653,324,632,493,1074,925,947
21,783,681,323,618,519,952,875,841
21,795,676,288,526,438,827,747,723
21,844,694,247,437,387,701,742,743
21,855,696,223,348,366,632,629,748
21,848,572,213,332,311,667,588,727
21,819,527,191,293,419,602,530,648
21,676,465,162,273,663,592,538,636
21,620,577,165,329,840,673,433,540
22,635,653,189,448,1112,784,547,716
22,623,652,215,520,1287,757,641,792
22,589,636,216,524,1336,798,647,857
22,580,629,220,516,1252,774,638,871
22,515,470,175,455,1157,686,628,860
22,406,265,163,409,899,531,517,678
22,278,198,127,353,639,414,252,493
22,208,175,123,344,517,360,178,348
22,143,140,117,338,568,343,139,246
22,134,96,112,325,529,336,96,213
22,70,62,76,222,521,312,80,135
22,57,52,65,152,527,285,58,109
22,38,49,61,140,427,178,45,80
22,27,43,50,102,278,172,42,64
22,27,34,47,103,262,168,40,63
22,21,28,42,95,254,158,40,55
22,20,26,49,215,184,173,36,56
22,19,23,50,227,139,151,32,52
22,20,23,50,233,114,171,27,38
22,18,21,47,230,106,161,24,29
22,18,19,42,227,102,156,22,23
22,15,13,25,117,90,116,20,17
22,16,16,37,120,66,130,21,17
22,14,16,38,121,79,157,20,15
22,16,15,39,120,80,169,21,15
22,17,16,40,121,81,177,23,15
22,17,16,41,115,82,174,21,15
22,17,17,53,125,79,173,22,16
22,17,18,53,119,71,125,23,15
22,17,19,54,118,80,150,26,17
22,16,18,55,116,80,141,24,18
22,16,19,57,118,84,156,24,18
22,15,19,45,89,83,149,24,17
22,15,25,74,145,76,158,25,17
22,13,25,75,160,76,149,21,15
22,13,25,75,164,77,193,21,14
22,14,25,74,164,75,193,23,13
22,15,23,69,159,80,213,22,14
22,15,18,38,121,84,221,24,16
22,17,20,37,121,77,212,24,17
22,19,20,44,129,107,176,25,19
22,17,20,42,127,112,182,24,19
22,17,20,39,124,107,156,24,19
22,16,18,36,106,105,144,33,17
22,16,15,43,85,107,138,36,19
22,15,20,50,155,77,144,38,19
22,15,20,52,160,71,119,38,20
22,15,20,52,160,75,120,38,20
22,16,20,51,160,79,148,28,19
22,14,22,44,156,66,143,24,18
22,14,16,25,76,72,141,20,15
22,15,17,27,101,84,172,20,16
23,16,19,36,132,81,178,21,16
23,16,19,37,139,93,170,22,17
23,15,18,37,140,106,170,21,16
23,15,17,36,138,99,166,21,16
23,14,20,35,122,93,153,20,17
23,12,17,33,112,109,153,18,15
23,12,20,54,145,119,154,18,15
23,14,19,56,152,112,175,24,16
23,12,19,57,155,115,176,23,15
23,12,18,56,152,109,161,23,15
23,12,20,53,139,91,160,24,15
23,11,18,38,105,91,139,23,15
23,16,24,60,150,115,131,18,16
23,16,24,61,145,112,131,19,18
23,17,25,61,141,112,142,20,18
23,17,24,59,136,113,136,20,19
23,18,24,57,127,88,129,19,19
23,13,17,29,50,44,105,19,17
23,13,17,25,47,37,123,18,15
23,13,15,29,56,64,187,17,14
23,13,15,40,64,63,189,18,16
23,12,16,39,63,64,191,18,15
23,14,18,41,62,68,208,17,15
23,15,18,40,63,73,200,17,15
23,17,17,36,55,57,144,17,14
23,18,18,33,56,58,141,15,16
23,17,16,32,58,55,140,14,16
23,19,14,31,59,51,112,15,17
23,18,15,36,64,55,143,16,17
23,17,16,37,68,47,127,15,17
23,18,17,49,83,67,147,18,15
23,18,19,50,82,72,152,20,15
23,15,19,50,82,72,152,21,16
23,17,18,46,76,72,176,23,17
23,17,18,46,71,74,178,26,18
23,16,15,26,56,60,187,24,17
23,17,16,38,102,63,182,25,16
23,17,20,40,112,68,188,23,14
23,17,19,41,115,71,145,21,14
23,15,20,42,117,70,141,18,15
23,15,22,46,118,69,132,17,16
23,16,24,48,121,65,165,18,17
23,18,23,49,121,66,165,20,19
23,18,24,49,122,76,170,19,18
23,20,23,48,121,88,180,30,17
23,17,21,43,114,88,166,38,16
23,18,17,31,73,88,135,37,16
23,16,15,26,69,90,131,38,14
23,16,15,32,70,105,141,40,15
23,15,17,30,69,99,139,33,15
24,15,17,30,79,109,158,25,14
24,15,17,29,79,108,161,26,15
24,15,18,29,81,109,195,25,15
24,14,17,29,96,82,176,21,15
24,16,19,44,109,79,177,23,14
24,16,21,45,103,60,158,22,15
24,14,20,44,100,64,165,20,15
24,14,19,44,95,51,115,17,14
24,15,19,43,82,54,133,21,14
24,13,16,33,78,53,130,19,14
24,13,13,31,83,58,128,20,13
24,13,15,39,109,52,120,20,13
24,13,15,39,108,52,122,21,13
24,13,16,39,106,54,132,17,15
24,14,17,36,112,56,121,17,15
24,14,21,36,108,51,121,15,16
24,13,21,28,91,52,134,17,18
24,11,23,27,91,57,133,19,19
24,13,21,24,97,51,116,19,16
24,11,24,30,93,48,144,22,17
24,13,22,30,95,48,156,23,18
24,14,20,31,89,45,137,21,16
24,16,22,33,85,38,146,20,16
24,16,23,32,77,47,148,21,16
24,18,20,40,113,48,124,22,15
24,17,19,39,117,51,113,21,15
24,18,21,40,120,52,119,22,14
24,17,17,40,121,54,112,22,14
24,16,17,42,130,67,100,21,16
24,16,17,37,128,79,149,19,16
24,15,17,37,127,81,148,19,16
24,12,16,35,124,83,155,19,17
24,16,17,39,133,85,166,20,17
24,15,15,37,137,73,172,18,14
24,15,17,40,120,68,177,17,13
24,15,18,40,127,65,178,18,13
24,17,19,41,129,64,170,17,14
24,16,18,35,118,58,163,33,14
24,16,20,36,106,67,172,35,15
24,16,16,26,100,98,149,37,16
24,18,20,41,95,113,151,38,16
24,18,21,44,103,125,149,39,15
24,16,21,50,114,127,145,27,16
24,17,21,51,109,119,130,26,19
24,17,21,49,107,93,161,63,21
24,17,18,42,120,80,201,68,20
24,16,18,40,127,130,204,71,20
24,17,17,32,118,144,204,74,20
24,15,17,32,118,155,223,75,18
24,16,20,34,105,163,193,58,17
25,14,19,25,84,169,169,62,17
25,16,19,27,54,144,169,78,20
25,16,21,32,62,156,185,77,21
25,17,22,35,98,163,192,92,21
25,18,22,35,103,210,216,127,22
25,24,25,41,122,232,214,138,26
25,24,25,40,123,244,234,137,23
25,25,24,38,120,235,224,137,21
25,25,25,37,99,241,202,128,22
25,24,22,46,130,208,177,89,23
25,19,18,43,116,185,162,64,19
25,15,17,43,117,163,188,50,20
25,13,16,41,117,160,193,55,22
25,14,13,38,121,141,199,66,21
25,15,13,26,86,199,209,75,17
25,16,13,25,84,206,207,78,18
25,18,14,25,87,204,171,74,18
25,17,16,25,90,223,182,69,16
25,16,16,27,81,222,167,55,17
25,16,16,29,87,169,163,41,17
25,17,16,24,89,168,166,37,18
25,17,16,29,96,243,154,55,17
25,17,16,34,105,247,137,55,17
25,17,15,33,104,255,150,58,18
25,16,15,31,95,248,139,71,19
25,15,16,35,118,242,136,76,17
25,13,15,31,114,231,143,79,16
25,15,16,31,117,228,145,86,18
25,15,19,33,130,220,159,87,18
25,15,21,34,134,221,156,77,16
25,17,21,35,126,242,175,85,19
25,22,23,38,129,235,205,107,24
25,29,23,35,123,298,259,125,27
25,50,22,33,111,329,257,153,43
25,102,22,33,114,483,318,202,51
25,117,25,33,108,503,334,217,60
25,147,26,43,115,496,331,240,61
25,165,33,45,119,562,288,311,87
25,191,36,48,129,675,393,345,141
25,342,90,89,178,654,455,469,243
25,595,152,140,302,790,490,628,473
25,809,250,221,444,845,572,767,675
25,966,333,322,719,860,703,861,800
25,1149,399,378,889,822,808,991,1043
25,1327,520,455,914,846,920,1046,1259
25,1319,574,508,935,777,972,1123,1261
25,1376,716,569,1135,840,1015,1150,1301
25,1428,865,555,1067,834,1063,1150,1315
25,1376,945,630,1030,849,1033,1156,1193
25,1293,957,780,1139,816,1032,1133,1104
26,1281,1030,929,1157,781,1103,1128,1151
26,1236,1086,961,969,708,1128,1158,1182
26,1185,1155,1022,1018,776,1159,1250,1221
26,1229,1184,987,999,723,1205,1300,1253
26,1181,1291,943,918,751,1130,1335,1256
26,1272,1256,840,888,841,1145,1365,1334
26,1277,1183,770,890,890,1140,1318,1286
26,1313,1143,776,837,796,1100,1268,1378
26,1286,1112,792,769,855,1056,1207,1423
26,1299,994,814,869,901,1096,1181,1374
26,1289,1024,883,1040,869,1039,1127,1281
26,1295,1032,956,1121,846,1020,1149,1275
26,1307,1027,933,1158,863,984,1116,1227
26,1279,1066,1035,1232,855,977,1111,1244
26,1285,1064,966,1200,790,1038,1141,1203
26,1251,1057,845,1093,795,1074,1107,1244
26,1250,1102,845,1124,758,1131,1071,1264
26,1195,957,843,1082,723,1130,1090,1264
26,1205,873,776,1151,780,1195,1042,1215
26,1275,937,781,1131,866,1169,1032,1281
26,1268,992,825,1110,824,1155,1091,1205
26,1159,898,782,995,881,1182,1139,1174
26,1164,889,771,1072,975,1192,1109,1104
26,1117,877,714,1058,987,1125,1250,1069
26,1055,934,771,1129,880,1105,1306,1157
26,1020,905,735,1186,886,1091,1281,1176
26,1205,916,729,1197,809,1009,1301,1237
26,1236,950,698,1120,717,1067,1313,1297
26,1282,1022,718,1055,581,1057,1213,1311
26,1266,893,620,952,638,1113,1140,1245
26,1236,845,655,867,594,1106,1062,1226
26,1134,903,618,836,659,1168,1063,1171
26,1053,915,605,844,634,1212,1108,1188
26,1119,904,540,782,642,1250,1187,1235
26,1138,850,512,768,600,1138,1123,1184
26,1259,914,435,814,660,1174,1248,1319
26,1268,815,396,780,559,1157,1169,1323
26,1281,777,415,749,579,1066,1115,1285
26,1200,754,388,730,559,1056,997,1205
26,1135,887,387,675,575,1182,1123,1175
26,1058,784,410,586,551,1110,985,1127
26,1032,792,421,619,597,1065,1036,1110
26,1130,868,379,665,604,1051,1067,1117
26,1221,909,375,653,624,1061,1153,1172
26,1272,823,378,694,602,971,1048,1311
26,1207,794,345,697,625,959,1154,1227
26,1272,801,358,786,622,962,1241,1222
26,1267,817,356,767,639,994,1250,1215
27,1239,724,343,743,599,990,1186,1283
27,1209,712,385,808,679,1016,1325,1210
27,1266,745,387,857,659,1122,1258,1218
27,1187,777,377,854,677,1095,1115,1259
27,1158,750,397,846,653,1117,1094,1264
27,1165,766,430,931,723,1061,1092,1212
27,1140,797,460,983,668,1050,993,1152
27,1217,817,475,980,687,942,1057,1329
27,1198,868,549,923,756,1003,1160,1300
27,1191,821,523,881,753,954,1116,1316
27,1163,758,501,833,712,994,1162,1271
27,1200,727,447,741,755,1047,1182,1319
27,1049,674,416,723,712,1093,1171,1162
27,1030,552,307,747,648,1066,1118,1116
27,926,640,327,777,639,1101,1249,996
27,843,655,321,775,675,1186,1199,1035
27,775,617,325,812,614,1196,1124,1044
27,1010,588,328,779,611,1215,1127,1090
27,1140,646,308,783,571,1192,1133,1229
27,1272,600,322,850,563,1298,1023,1346
27,1412,639,362,865,529,1256,1065,1426
27,1514,623,356,798,573,1204,1090,1415
27,1424,672,373,783,607,1236,1064,1361
27,1376,598,371,719,608,1281,1068,1250
27,1319,497,338,610,620,1120,1154,1219
27,1171,448,296,614,636,1143,1198,1134
27,1128,463,274,623,599,1129,1193,1097
27,1179,518,297,661,612,1103,1227,1203
27,1130,603,294,737,599,1083,1207,1243
27,1115,693,326,765,642,1177,1098,1217
27,1134,712,361,823,593,1124,1038,1188
27,1143,751,398,904,583,1211,1062,1239
27,1028,689,406,958,518,1222,1058,1189
27,1048,621,403,889,528,1188,1111,1183
27,1080,571,397,950,567,1184,1188,1192
27,1081,515,357,891,625,1276,1188,1207
27,1210,651,433,934,707,1240,1238,1350
27,1348,659,415,958,772,1199,1256,1354
27,1328,737,462,1015,818,1190,1217,1391
27,1322,754,466,1000,794,1198,1198,1439
27,1348,771,474,967,850,1158,1199,1443
27,1222,645,391,822,826,1116,1222,1310
27,1119,664,401,718,766,1123,1242,1255
27,1126,568,354,696,742,1199,1255,1129
27,997,593,321,642,683,1159,1153,1016
27,1000,589,319,696,567,1044,1103,1024
27,1008,560,284,771,558,1019,1064,1035
27,1063,609,307,801,596,1044,1056,1138
27,1119,708,299,751,539,956,1006,1194
27,1197,644,313,757,572,911,1043,1294
27,1204,723,353,807,619,1008,1092,1249
28,1235,722,364,822,632,1128,1029,1199
28,1329,665,321,847,629,1077,971,1298
28,1293,569,359,957,710,1227,993,1420
28,1259,564,368,934,769,1211,1137,1336
28,1284,574,355,867,732,1221,1173,1348
28,1249,572,340,834,713,1173,1225,1380
28,1060,539,358,856,723,1171,1176,1195
28,1070,592,343,772,672,1039,1204,1049
28,1111,613,408,871,592,1085,1159,1050
28,1030,521,382,846,629,1005,1167,1003
28,980,547,376,793,599,962,1148,1079
28,1009,597,415,818,597,981,1271,1114
28,1090,534,395,802,572,1023,1209,1161
28,1075,521,355,757,560,973,1135,1115
28,1066,517,360,820,579,999,1024,1177
28,1064,529,366,807,571,1034,972,1101
28,1106,585,306,737,539,1030,926,1141
28,1024,581,368,821,573,1055,1060,1041
28,1083,675,328,743,616,1055,1093,1232
28,1220,685,329,702,576,1084,1100,1326
28,1243,667,363,726,586,1049,1157,1337
28,1189,595,359,741,551,1065,1102,1334
28,1133,593,320,670,586,1031,1003,1358
28,1042,481,315,710,547,1074,1010,1148
28,853,446,303,708,499,1068,1066,937
28,912,436,258,685,482,1081,1096,903
28,967,444,235,586,543,1093,1096,917
28,1017,510,203,570,489,1068,1107,966
28,992,539,225,514,485,1015,1072,1017
28,990,535,232,614,499,986,1087,1071
28,863,559,235,656,492,995,1068,1120
28,778,617,251,698,460,967,1065,1053
28,738,649,252,694,444,980,1139,995
28,881,656,241,705,475,1004,1169,948
28,894,649,284,678,516,1086,1181,959
28,895,618,295,625,497,1046,1123,878
28,957,615,288,604,487,1067,1202,904
28,968,551,347,717,509,1056,1209,1009
28,881,476,344,762,444,1023,1181,1043
28,941,488,321,770,389,978,1160,1087
28,1082,493,312,785,461,987,1203,1100
28,1050,448,326,866,449,970,1095,1100
28,1052,467,290,796,454,923,1021,1182
28,1043,565,284,770,456,965,1059,1146
28,992,550,291,750,556,919,1054,1098
28,817,573,300,735,533,1037,1016,1083
28,790,513,312,663,571,1018,1029,1040
28,882,506,320,739,567,999,980,922
28,840,416,314,752,601,1059,997,1067
28,1100,566,317,725,637,1127,925,1179
29,1174,544,303,743,611,1023,873,1269
29,1220,570,304,732,607,1063,833,1264
29,1180,532,273,624,599,1173,798,1256
29,1222,633,281,581,592,1129,869,1285
29,1071,536,254,588,464,1113,1017,1260
29,1064,549,293,712,501,1101,1059,1229
29,1087,639,268,681,462,1079,1076,1272
29,1105,676,292,723,522,1071,1101,1270
29,1132,600,291,727,516,1061,1011,1153
29,1075,607,306,709,541,1035,946,1112
29,1039,614,292,591,538,1091,954,1143
29,1043,639,296,616,537,1069,1030,1126
29,1073,652,286,591,480,1089,1159,1107
29,1047,652,276,595,479,1034,1115,1133
29,1100,613,295,653,465,991,1084,1148
29,1099,625,276,708,418,922,1052,1054
29,1086,522,273,701,433,948,1042,991
29,1070,452,262,687,500,877,896,1207
29,1019,412,297,688,499,980,982,1187
29,1009,473,265,672,477,1000,1007,1130
29,1022,427,271,630,510,1042,1008,1165
29,1035,391,267,651,539,1084,942,1298
29,1002,395,255,677,458,1098,1013,1076
29,1177,431,298,734,530,1051,979,1128
29,1125,372,299,689,542,1108,945,1146
29,1132,389,311,665,517,1097,938,1136
29,1144,408,352,845,535,1076,1062,1072
29,1085,398,348,795,558,1037,1040,1059
29,922,369,280,713,498,1122,1051,960
29,1088,535,383,787,542,1078,1183,1143
29,1179,562,381,783,609,1076,1198,1320
29,1154,569,342,533,581,1039,1053,1290
29,1160,594,338,537,546,985,980,1259
29,1157,603,367,600,570,936,937,1264
29,1019,475,247,480,527,954,780,1119
29,901,459,221,471,494,964,764,876
29,811,437,219,462,452,921,744,834
29,776,418,215,430,435,920,718,823
29,714,411,164,374,358,773,646,776
29,606,395,153,337,326,637,505,605
29,466,395,136,316,343,456,357,488
29,379,387,126,322,473,370,334,381
29,348,397,145,350,673,370,320,468
29,446,495,160,305,759,414,400,593
29,427,526,163,304,802,404,415,694
29,404,527,160,279,798,392,411,714
29,395,517,149,269,744,382,379,708
29,384,493,153,361,612,339,362,646
29,240,372,122,354,507,262,243,525
29,196,296,114,354,427,186,190,351
30,163,183,112,359,350,162,153,203
30,124,131,109,353,309,144,116,172
30,106,97,68,216,259,103,95,123
30,85,63,51,158,227,67,67,95
30,62,56,47,140,223,49,48,76
30,35,45,41,118,215,45,31,54
30,30,33,33,104,204,37,26,47
30,28,26,31,78,218,43,26,31
30,22,20,29,60,233,46,23,30
30,17,20,28,57,227,51,26,30
30,20,25,36,81,430,96,34,65
30,19,29,45,142,510,209,44,91
30,48,62,69,217,632,299,50,102
30,90,81,74,228,634,314,72,171
30,114,85,74,239,683,329,85,188
30,119,90,81,260,654,387,88,182
30,122,92,79,244,633,350,85,176
30,118,78,60,181,515,297,86,179
30,92,60,56,169,541,375,101,122
30,61,57,57,165,534,403,99,99
30,51,48,48,129,457,349,95,97
30,45,45,46,104,404,349,97,90
30,34,41,42,98,372,342,98,73
30,34,45,52,104,329,339,73,60
30,42,50,81,164,247,298,61,52
30,42,62,113,171,264,318,67,47
30,41,61,115,172,264,353,69,42
30,48,67,117,174,263,379,74,121
30,77,76,114,172,248,329,85,163
30,79,72,96,101,260,522,117,171
30,83,62,48,70,204,528,116,172
30,84,63,42,75,194,515,116,175
30,81,56,45,110,179,509,108,134
30,54,34,43,115,178,487,96,80
30,199,127,50,115,154,374,60,208
30,201,138,55,119,155,370,52,251
30,213,139,56,112,152,353,48,260
30,218,140,53,71,148,327,45,265
30,219,143,53,54,140,331,41,269
30,110,82,56,49,101,203,27,183
30,122,73,55,38,96,155,26,117
30,103,91,53,36,95,141,31,97
30,112,91,54,37,96,137,34,118
30,113,98,52,39,85,124,44,179
30,109,95,44,45,140,169,59,275
30,88,95,56,59,233,274,92,311
30,94,81,72,65,384,286,95,362
30,192,190,89,88,407,302,138,422
30,194,195,102,106,430,333,178,537
30,202,198,121,114,464,411,182,529
31,207,214,127,131,437,383,208,587
31,266,221,127,158,329,385,245,647
31,244,165,116,173,308,383,273,654
31,256,163,106,166,273,362,257,561
31,262,210,89,177,181,255,266,532
31,264,201,89,179,254,257,244,449
31,202,195,81,178,533,323,208,306
31,146,178,81,216,699,344,138,187
31,127,176,87,225,719,345,125,174
31,115,223,83,239,762,355,160,203
31,131,230,84,299,895,349,305,214
31,149,239,96,325,878,350,390,218
31,222,242,115,303,758,364,532,330
31,550,252,122,313,771,520,672,576
31,769,200,130,307,753,570,724,697
31,785,183,121,250,568,561,684,699
31,794,244,113,197,355,540,653,705
31,782,265,104,198,512,516,555,659
31,607,272,118,209,696,442,381,456
31,305,371,142,255,732,407,249,211
31,320,418,151,404,841,402,234,393
31,292,388,166,467,933,383,214,400
31,279,385,174,472,899,377,184,412
31,263,377,186,518,750,270,170,414
31,233,269,200,573,734,198,167,415
31,176,195,229,519,598,167,155,238
31,235,177,223,512,483,155,296,225
31,369,148,213,503,450,149,304,253
31,392,183,191,448,462,132,321,263
31,407,215,157,344,446,106,319,261
31,391,209,93,292,533,100,317,293
31,427,216,82,215,624,95,247,381
31,416,215,80,223,596,91,238,371
31,396,174,78,259,613,144,218,349
31,387,99,71,305,639,145,210,344
31,380,93,77,313,579,159,278,320
31,299,75,154,358,444,151,215,181
31,132,73,166,461,489,150,213,127
31,113,67,172,449,468,104,217,215
31,81,70,173,414,403,132,231,267
31,103,76,174,399,396,130,147,264
31,101,67,121,431,415,151,140,266
31,100,65,105,321,334,153,137,269
31,97,58,92,300,319,158,126,211
31,95,57,96,305,322,153,95,153
31,69,53,99,305,310,236,85,138
31,54,50,89,206,308,236,84,116
31,87,55,85,187,317,239,92,314
31,98,62,96,187,285,237,94,324
32,98,60,85,170,233,226,92,321
32,92,55,86,177,214,132,80,325
32,92,56,94,170,199,117,75,328
32,60,47,93,170,197,116,74,203
32,38,37,80,165,184,116,81,247
32,32,35,80,171,187,123,92,248
32,37,40,114,264,185,126,90,245
32,36,43,115,265,143,114,87,241
32,38,45,121,272,115,104,77,197
32,47,50,124,280,119,99,70,201
32,47,49,123,279,116,86,54,200
32,45,44,85,179,113,79,54,199
32,47,39,73,143,107,128,57,211
32,43,38,66,151,99,132,59,217
32,34,35,63,146,96,132,49,126
32,35,41,77,166,104,132,48,115
32,36,40,83,177,146,120,46,107
32,33,40,81,175,172,66,42,80
32,32,40,80,158,182,81,38,50
32,29,39,82,173,184,81,38,44
32,26,32,72,170,187,82,35,39
32,19,28,58,174,167,89,40,40
32,22,27,60,212,152,90,38,33
32,25,30,62,220,147,67,37,103
32,37,29,58,208,143,67,47,127
32,37,28,52,196,148,68,46,132
32,37,27,51,187,143,87,46,134
32,35,26,44,153,146,90,48,135
32,33,24,42,138,152,93,46,95
32,33,23,36,134,169,92,38,207
32,36,25,40,161,172,90,40,221
32,39,26,47,183,209,69,34,225
32,40,25,45,176,212,71,35,231
32,41,22,44,175,218,85,45,239
32,33,78,46,178,209,84,65,200
32,50,132,49,174,200,90,68,194
32,50,140,45,151,159,85,72,193
32,51,143,52,161,199,101,72,186
32,52,146,68,168,186,89,69,178
32,53,126,69,168,189,108,52,103
32,59,71,65,146,196,107,54,105
32,61,63,65,143,194,111,52,93
32,61,57,59,129,177,91,49,95
32,60,52,39,125,191,98,42,88
32,57,50,36,125,205,88,39,83
32,43,47,36,128,199,87,35,42
32,42,45,40,131,214,82,34,81
32,46,92,40,126,219,79,35,108
32,46,94,36,123,211,72,38,115
32,47,95,41,157,223,59,38,118
32,42,95,47,159,245,85,33,119
33,41,93,59,174,285,121,44,98
33,35,49,64,184,300,161,63,71
33,36,45,70,185,306,199,74,59
33,45,48,68,150,295,202,76,54
33,71,104,64,146,276,195,77,56
33,79,112,50,113,218,178,70,125
33,94,114,46,127,168,143,55,136
33,95,115,41,140,168,78,41,140
33,93,115,45,198,230,87,47,141
33,73,67,55,240,270,151,66,140
33,62,48,57,255,400,217,120,83
33,39,42,57,241,411,233,149,55
33,82,78,60,237,412,251,156,125
33,110,111,57,196,379,255,154,152
33,130,117,46,143,354,225,149,167
33,135,121,48,174,264,160,113,173
33,136,122,54,264,455,157,78,176
33,114,107,61,301,481,178,86,138
33,86,69,64,304,501,203,132,147
33,61,78,75,319,521,233,150,143
33,54,96,73,292,542,241,160,152
33,56,102,68,220,417,233,158,155
33,58,103,60,168,387,198,148,162
33,58,105,64,177,357,158,110,128
33,50,96,84,193,324,119,82,117
33,43,75,92,218,279,140,80,98
33,42,70,100,253,393,212,88,105
33,58,130,106,318,457,221,88,143
33,118,163,105,319,529,233,102,194
33,138,187,84,336,532,233,119,240
33,150,199,78,327,510,230,183,243
33,239,210,103,365,421,210,276,293
33,243,178,148,369,435,247,283,281
33,222,152,162,402,409,250,289,248
33,213,119,165,391,445,251,290,205
33,208,96,167,403,453,239,248,200
33,94,64,151,355,429,198,137,105
33,80,60,108,294,345,136,119,69
33,73,54,135,360,288,106,91,64
33,66,51,138,378,290,79,63,58
33,60,56,148,444,293,62,59,47
33,66,72,186,520,306,58,48,38
33,56,74,198,563,358,63,47,34
33,56,70,173,502,385,64,38,27
33,53,68,169,474,352,65,36,29
33,53,64,160,410,351,63,30,39
33,60,49,112,316,333,58,33,41
33,79,76,93,234,322,44,34,64
33,80,80,84,217,308,35,29,67
33,112,131,79,212,286,36,36,154
34,130,154,74,184,271,36,81,208
34,123,153,68,145,274,36,85,215
34,112,141,55,138,293,47,87,212
34,114,139,55,142,309,61,90,214
34,83,95,49,152,334,68,89,163
34,49,49,49,153,341,73,54,83
34,44,44,54,171,374,73,46,63
34,144,37,43,159,326,68,61,321
34,160,36,49,164,285,72,89,356
34,163,103,54,180,275,108,151,375
34,165,108,53,185,285,134,163,400
34,167,110,63,256,265,168,165,403
34,96,110,66,270,259,194,161,269
34,77,110,63,259,248,193,148,231
34,119,186,64,246,244,178,98,225
34,125,193,64,253,269,167,80,192
34,125,194,122,362,243,142,79,188
34,124,197,157,391,228,108,78,164
34,125,200,160,406,232,164,140,201
34,82,98,165,423,242,167,145,181
34,70,74,165,419,341,167,150,166
34,67,70,125,277,447,167,149,165
34,65,58,77,238,465,169,151,161
34,43,48,77,229,461,117,103,87
34,40,31,69,207,452,119,80,63
34,35,32,76,223,364,105,66,58
34,32,30,72,215,222,106,65,66
34,30,29,68,194,198,121,56,81
34,28,29,65,195,203,143,41,79
34,26,27,54,186,190,133,37,79
34,25,27,60,190,163,134,39,80
34,25,25,64,225,163,124,41,70
34,23,25,65,227,225,116,45,43
34,20,23,61,209,236,74,45,43
34,20,24,62,206,237,84,44,42
34,19,30,71,188,240,89,42,39
34,17,32,75,176,246,103,39,38
34,18,32,75,171,177,92,32,40
34,19,34,77,166,146,104,49,35
34,18,33,80,171,151,109,56,37
34,17,24,57,160,136,106,55,38
34,19,26,57,152,120,93,57,36
34,18,25,59,194,156,99,60,35
34,19,23,59,200,158,87,48,33
34,22,24,55,186,160,99,41,26
34,21,26,55,184,195,107,41,26
34,20,20,42,167,192,115,37,38
34,21,21,36,135,161,111,33,37
34,22,24,40,128,156,111,32,35
34,19,25,42,130,159,93,31,36
35,18,21,39,125,115,82,30,38
35,19,22,38,112,115,68,26,29
35,16,21,38,102,110,63,31,31
35,15,19,33,117,112,61,29,34
35,16,20,40,131,122,54,32,34
35,16,20,40,128,127,70,33,30
35,18,20,40,131,151,72,38,29
35,28,21,43,141,150,86,34,26
35,28,18,39,131,157,84,34,29
35,30,18,27,115,140,83,32,32
35,30,19,29,123,153,85,32,37
35,30,22,32,123,132,84,32,36
35,66,77,36,123,137,70,32,49
35,68,82,41,141,138,70,32,60
35,68,84,41,151,138,65,32,63
35,69,87,43,159,129,42,32,61
35,69,87,41,176,142,40,29,65
35,33,47,36,161,147,38,38,59
35,28,38,33,155,151,41,40,45
35,37,33,35,161,143,47,40,75
35,37,26,34,168,151,46,40,77
35,36,22,35,155,142,46,38,75
35,35,18,33,154,126,47,30,75
35,36,18,34,157,149,71,29,77
35,31,19,39,177,153,69,32,47
35,31,18,42,165,138,71,35,43
35,32,20,40,161,137,72,37,39
35,32,19,40,160,144,74,43,38
35,31,18,38,155,119,50,44,37
35,28,19,33,116,134,51,42,71
35,25,20,26,109,133,50,38,74
35,33,19,30,134,139,47,36,75
35,40,20,33,142,150,41,31,75
35,41,21,30,129,165,36,27,74
35,40,21,31,145,146,51,26,41
35,40,20,31,146,153,57,29,73
35,35,20,32,121,144,60,31,77
35,27,20,30,117,124,63,31,79
35,26,19,33,118,120,66,32,78
35,25,17,33,97,127,59,34,80
35,32,20,33,89,169,96,37,50
35,31,23,30,84,179,100,35,44
35,33,24,31,90,191,101,31,72
35,34,28,39,128,178,102,32,72
35,35,29,44,133,181,101,29,72
35,52,34,47,133,133,63,36,77
35,66,35,49,138,130,53,44,107
35,69,35,48,142,119,50,48,90
35,68,33,41,145,162,54,48,90
36,68,32,38,176,241,71,53,118
36,53,26,38,189,434,159,57,138
36,33,22,39,202,440,164,53,121
36,24,20,39,200,447,167,50,121
36,31,21,39,184,433,168,54,123
36,34,28,41,148,393,163,52,98
36,37,31,43,147,163,82,58,63
36,51,37,70,180,160,92,65,94
36,55,38,73,207,174,117,68,99
36,52,40,73,201,264,145,69,112
36,52,81,74,233,321,151,72,123
36,57,115,78,238,340,152,67,131
36,52,117,53,205,343,142,68,121
36,49,123,49,177,342,121,65,119
36,48,124,57,216,298,96,67,107
36,49,104,84,281,340,90,102,93
36,40,64,83,306,387,126,101,81
36,31,56,86,307,425,142,98,51
36,33,46,88,313,424,158,109,46
36,32,42,83,297,437,155,116,42
36,30,36,55,211,369,153,91,39
36,28,35,45,165,303,123,90,41
36,27,33,50,180,239,110,92,41
36,24,34,58,188,277,85,87,40
36,26,47,58,183,250,85,74,81
36,38,52,61,181,255,108,69,130
36,49,59,72,201,272,188,73,138
36,51,61,71,193,349,245,95,140
36,52,73,139,408,317,266,111,161
36,53,67,147,445,326,281,141,147
36,46,64,150,456,322,276,141,109
36,34,58,153,476,327,234,146,99
36,39,58,156,517,257,177,134,95
36,41,44,103,394,258,147,118,58
36,38,45,99,361,231,108,79,50
36,42,55,117,374,218,107,75,42
36,43,64,157,415,219,91,56,35
36,39,67,168,438,215,81,47,32
36,34,69,181,509,223,75,39,23
36,35,70,192,546,270,71,35,24
36,29,62,185,549,274,67,32,23
36,32,51,148,509,263,70,31,26
36,31,48,143,484,245,63,27,27
36,32,51,131,430,236,70,27,26
36,34,56,121,410,179,71,24,25
36,43,57,115,394,206,64,23,25
36,48,56,111,380,206,64,21,20
36,50,66,96,335,212,66,22,17
37,53,96,79,273,214,58,21,18
37,51,95,61,213,221,59,23,21
37,45,99,58,192,196,61,25,20
37,48,135,60,175,181,62,27,21
37,62,157,62,145,199,73,29,21
37,61,148,59,158,227,78,30,21
37,62,147,61,150,236,87,35,19
37,60,147,56,157,258,94,38,19
37,58,119,59,159,252,100,40,22
37,40,92,57,164,230,96,38,21
37,37,80,58,139,244,94,39,21
37,37,81,66,155,264,84,36,21
37,41,95,71,143,249,79,35,20
37,59,146,68,139,248,74,33,18
37,79,160,70,136,253,65,32,19
37,101,175,73,144,213,61,30,22
37,123,214,60,118,193,58,28,28
37,131,214,55,112,232,57,27,29
37,124,201,54,117,285,57,28,29
37,118,186,52,117,296,63,30,30
37,120,190,44,109,290,63,30,28
37,116,175,45,101,274,72,31,23
37,132,272,44,106,258,71,31,55
37,141,284,43,110,196,67,31,59
37,146,287,43,142,239,60,28,83
37,139,282,43,134,233,60,41,122
37,181,324,51,141,232,62,117,172
37,170,253,53,141,236,254,181,217
37,165,231,53,129,234,310,215,240
37,161,228,54,96,187,343,256,273
37,164,225,62,102,195,399,323,277
37,304,177,65,97,197,435,364,320
37,346,169,69,90,155,382,372,299
37,352,163,71,85,156,355,361,283
37,354,161,71,77,131,326,349,248
37,354,154,72,95,120,299,298,234
37,212,94,74,127,107,248,227,123
37,127,82,119,248,97,225,168,95
37,114,90,120,267,205,254,158,126
37,143,166,132,303,371,440,136,276
37,144,184,143,347,568,628,212,339
37,137,183,145,356,748,671,236,351
37,140,189,136,326,881,699,244,360
37,137,190,148,339,909,694,248,361
37,95,127,138,318,884,597,242,265
37,69,99,129,275,795,371,161,171
37,68,96,125,253,644,292,113,185
37,111,168,110,219,563,248,103,243
37,107,162,108,223,625,322,116,241
37,108,164,111,238,618,344,118,242
37,109,165,105,243,653,343,113,263
37,109,163,100,244,674,338,120,275
38,51,75,86,232,620,311,108,227
38,42,65,67,212,497,208,67,212
38,39,61,88,193,462,164,58,207
38,32,50,88,170,368,152,55,178
38,25,49,130,247,299,145,37,107
38,29,54,138,342,290,140,40,73
38,28,54,144,353,317,122,44,61
38,32,53,140,361,387,138,49,51
38,50,64,156,391,437,144,51,50
38,220,79,157,390,459,144,56,70
38,340,81,168,363,445,149,55,147
38,354,88,172,344,541,174,55,167
38,556,104,166,357,673,190,68,241
38,741,118,160,404,727,255,90,369
38,759,126,132,462,818,315,100,384
38,743,133,118,529,849,323,104,377
38,804,154,109,539,776,352,103,378
38,726,188,126,573,667,353,111,346
38,566,203,168,591,613,383,119,227
38,599,279,191,528,498,463,144,233
38,617,411,329,583,519,582,195,245
38,634,453,348,594,618,755,225,278
38,645,484,382,588,643,850,234,281
38,647,482,374,559,723,930,240,269
38,580,460,373,581,771,927,253,266
38,571,361,327,553,735,912,227,237
38,516,332,328,611,677,809,258,235
38,469,261,283,592,706,776,246,241
38,436,248,273,558,613,659,233,234
38,408,221,258,527,572,592,207,220
38,337,215,167,414,569,504,213,240
38,254,188,124,291,623,432,157,371
38,227,292,120,290,714,296,176,398
38,219,308,115,335,861,270,185,427
38,228,324,123,350,879,256,184,444
38,230,311,114,344,1017,279,167,439
38,205,310,112,357,1015,258,155,321
38,154,217,109,336,969,254,128,272
38,179,246,145,297,856,234,110,236
38,228,300,226,335,850,226,96,184
38,223,313,238,314,698,175,83,163
38,215,298,235,303,728,243,91,251
38,213,294,236,304,657,265,86,252
38,194,260,215,303,743,289,88,245
38,143,176,141,240,702,295,85,243
38,146,146,117,261,669,301,84,243
38,146,148,119,276,598,251,56,104
38,148,147,122,294,673,199,57,84
38,144,135,134,304,563,148,49,68
38,104,99,124,430,565,131,44,59
39,96,97,133,452,596,113,41,52
39,79,84,133,447,620,150,39,42
39,76,86,139,443,618,255,47,40
39,79,77,117,436,632,268,47,41
39,70,67,98,323,638,293,168,41
39,71,71,101,386,739,402,250,47
39,81,87,127,478,805,446,286,54
39,82,86,135,552,804,432,288,55
39,98,179,155,566,847,468,296,64
39,100,180,187,595,841,467,252,63
39,97,179,185,558,723,387,176,60
39,88,175,169,475,601,319,112,52
39,86,176,156,421,479,279,101,50
39,51,78,142,397,325,199,153,40
39,52,81,110,348,327,277,248,48
39,52,76,94,284,326,323,281,51
39,50,68,92,294,298,327,286,51
39,45,57,88,245,316,331,299,52
39,46,65,88,247,384,378,289,48
39,52,64,73,266,412,333,313,48
39,63,81,80,273,483,339,309,53
39,82,100,77,258,503,396,319,59
39,86,100,76,238,546,393,314,58
39,84,94,68,244,586,348,300,58
39,88,89,64,236,623,323,192,66
39,82,76,57,249,584,310,164,60
39,75,72,68,255,606,254,179,56
39,73,73,67,240,549,251,172,56
39,72,71,63,262,457,249,165,55
39,57,70,67,278,414,258,159,37
39,56,68,68,264,444,288,159,41
39,37,45,59,271,394,268,154,41
39,32,39,59,274,383,259,151,40
39,32,38,58,242,415,259,155,40
39,30,35,54,220,383,257,157,38
39,26,35,50,221,333,144,136,30
39,23,32,40,226,321,127,75,21
39,24,29,38,227,320,146,82,26
39,24,28,36,239,289,192,112,26
39,25,27,31,217,262,185,114,24
39,25,26,33,218,222,188,114,24
39,26,29,46,215,248,216,124,30
39,27,30,65,257,356,222,133,27
39,27,31,67,251,341,191,102,26
39,27,31,68,265,339,222,105,27
39,25,31,68,266,356,227,119,28
39,30,28,60,247,353,202,120,23
39,28,26,40,210,288,181,98,21
39,27,24,37,197,277,175,99,22
39,28,23,34,164,271,139,97,22
40,34,27,30,149,261,128,81,21
40,28,27,31,147,268,119,66,20
40,29,36,29,110,221,117,61,19
40,69,52,27,97,229,138,63,20
40,78,76,29,94,222,213,89,38
40,79,77,31,110,233,216,87,41
40,81,84,71,387,258,225,89,44
40,84,81,93,536,297,227,89,45
40,57,75,96,562,321,210,87,44
40,43,53,96,573,351,118,45,30
40,38,49,96,581,335,101,40,27
40,36,37,72,449,316,80,33,23
40,26,34,39,278,288,61,30,20
40,25,28,35,252,268,56,28,21
40,24,22,33,241,237,70,26,19
40,25,21,31,209,222,73,26,18
40,24,25,42,294,193,69,31,20
40,24,25,39,278,171,69,31,20
40,23,28,37,263,200,69,30,20
40,22,27,38,257,194,42,29,21
40,21,30,41,267,233,42,29,21
40,18,25,31,185,237,45,23,18
40,18,27,31,185,248,43,21,18
40,17,26,32,172,208,43,21,18
40,17,26,32,175,212,42,21,19
40,18,23,27,159,179,34,20,18
40,17,24,26,139,179,27,19,18
40,16,19,26,130,173,27,19,17
40,16,17,23,117,209,27,19,15
40,19,18,23,103,205,27,18,15
40,19,20,24,119,200,27,18,19
40,20,19,23,100,193,31,17,19
40,20,20,25,89,188,32,19,20
40,22,23,29,113,153,33,20,20
40,21,23,31,112,136,34,20,21
40,19,21,33,116,148,31,19,17
40,19,23,34,116,143,25,18,16
40,20,26,33,116,150,24,16,15
40,17,23,28,98,151,23,16,16
40,16,23,29,116,153,31,15,14
40,18,23,23,91,134,33,18,13
40,19,24,20,92,126,36,21,13
40,17,21,20,92,123,37,22,14
40,21,21,21,87,121,36,21,14
40,20,22,17,63,116,28,21,16
40,20,21,18,68,125,27,19,17
40,20,17,21,83,123,25,15,19
40,21,19,25,85,107,21,16,19
40,19,18,24,85,112,27,20,19
40,20,23,26,80,115,30,22,19
41,19,24,27,81,105,29,23,17
41,18,24,26,66,113,29,24,19
41,20,23,23,79,138,31,23,18
41,20,24,24,97,163,29,21,20
