3,217,385,616,1139,1108,890,411,362,2
3,212,384,639,1063,984,816,397,344,2
3,283,375,614,1042,1118,800,369,342,2
3,287,327,630,994,1080,674,261,224,2
3,300,340,651,1042,1148,739,310,234,2
3,295,322,611,1062,1215,766,307,262,2
3,302,308,547,1022,1271,766,289,276,2
3,232,293,518,1050,1416,788,311,286,2
3,218,283,461,1079,1470,786,314,283,2
3,224,251,444,1136,1495,789,304,271,2
3,245,279,526,1195,1519,758,308,233,2
3,246,248,530,1157,1531,701,286,216,2
3,246,263,590,1137,1323,666,262,203,2
3,261,289,604,1210,1322,726,302,245,2
3,256,275,561,1189,1430,768,298,278,2
3,275,271,504,1176,1478,840,310,323,2
3,271,313,540,1279,1491,925,350,351,2
3,276,308,504,1243,1518,933,359,343,2
3,263,303,481,1133,1450,908,338,324,2
3,255,319,573,1182,1452,836,320,301,2
3,264,303,571,1077,1409,749,303,272,2
3,246,288,496,1074,1501,729,302,272,2
3,251,277,484,1022,1408,701,292,277,2
3,254,289,562,1099,1402,772,298,273,2
3,265,282,493,1055,1352,860,316,257,2
3,241,319,560,1103,1406,961,359,348,2
3,267,317,613,1061,1308,904,337,357,2
3,317,334,625,1199,1429,936,371,368,2
3,322,321,621,1218,1513,913,379,375,2
3,324,346,692,1241,1490,876,386,388,2
3,310,305,630,1225,1348,759,355,328,2
4,291,300,583,1178,1420,802,346,305,2
4,224,301,605,1066,1363,774,311,284,2
4,199,278,554,882,1233,664,270,259,2
4,164,213,480,672,1082,540,198,223,2
4,172,234,526,614,1147,536,182,168,2
4,239,254,565,770,1199,572,225,214,2
4,254,260,570,864,1228,583,234,241,2
4,260,264,553,926,1243,673,262,245,2
4,276,280,548,1046,1376,772,295,262,2
4,278,283,515,1105,1421,829,307,281,2
4,239,257,490,987,1321,788,282,245,2
4,252,244,499,928,1341,825,273,265,2
4,255,253,544,970,1346,841,260,264,2
4,276,240,528,900,1196,769,231,258,2
4,262,221,537,898,1175,749,237,240,2
4,251,227,540,1003,1219,782,248,241,2
4,237,232,482,1031,1208,736,260,210,2
4,238,242,420,1009,1274,715,265,239,2
4,203,238,439,995,1321,753,271,233,2
4,219,275,464,1092,1376,876,321,246,2
4,228,317,540,1080,1327,841,324,239,2
4,212,312,605,1061,1295,850,316,245,2
4,243,300,626,1077,1254,850,328,231,2
4,254,322,632,1128,1263,849,359,248,2
4,297,397,683,1139,1321,897,413,277,2
4,300,397,652,1162,1427,920,416,275,2
4,305,408,633,1216,1491,937,415,253,2
4,288,420,614,1287,1587,980,431,295,2
4,301,425,647,1282,1546,971,408,282,2
4,249,332,580,1193,1415,833,306,250,2
4,233,282,546,1086,1321,831,294,241,2
4,221,267,490,1080,1275,846,303,256,2
4,246,277,507,983,1151,763,267,237,2
4,208,267,447,939,1183,774,265,250,2
4,202,266,491,910,1157,746,255,258,2
4,207,265,461,910,1050,676,234,293,2
4,213,244,449,866,1129,596,208,284,2
4,188,240,541,908,1188,652,219,263,2
4,185,206,515,880,1255,626,206,262,2
4,194,202,440,846,1253,592,188,256,2
4,225,218,531,963,1431,604,204,220,2
4,221,252,629,988,1326,598,205,215,2
4,206,216,553,896,1389,535,180,223,2
4,215,241,567,944,1359,621,198,212,2
4,205,237,584,926,1355,588,198,199,2
4,194,218,528,784,1220,605,191,207,2
4,199,231,503,792,1216,601,207,216,2
4,203,262,518,864,1149,625,241,218,2
4,197,236,486,781,1221,512,225,228,2
5,226,246,493,831,1333,537,232,225,2
5,199,255,520,912,1324,541,245,220,2
5,198,243,496,834,1395,608,260,237,2
5,208,208,481,735,1316,546,220,204,2
5,213,244,550,847,1308,568,229,230,2
5,224,239,560,911,1282,612,236,227,2
5,224,234,544,844,1259,599,223,227,2
5,225,209,506,857,1197,588,191,201,2
5,202,202,492,849,1252,608,190,237,2
5,199,171,465,791,1190,583,172,192,2
5,171,177,472,655,1033,535,150,194,2
5,182,160,452,663,1141,521,143,183,2
5,183,164,540,694,1118,479,133,196,2
5,190,211,568,817,1186,522,160,169,2
5,187,210,547,797,1101,526,164,184,2
5,165,199,507,871,1144,538,173,200,2
5,147,221,521,874,1002,577,188,202,2
5,132,216,441,847,986,578,186,185,2
5,146,185,400,794,857,537,175,165,2
5,153,177,418,810,1090,549,202,188,2
5,166,183,421,814,1244,588,213,190,2
5,178,166,390,797,1328,539,197,195,2
5,215,220,375,893,1351,587,230,196,2
5,215,219,352,901,1367,577,223,203,2
5,218,216,370,902,1298,554,196,199,2
5,225,218,420,908,1182,523,190,202,2
5,303,250,463,1001,1227,639,229,244,2
5,279,246,483,975,1213,612,224,276,2
5,280,247,493,928,1188,586,224,302,2
5,273,250,474,903,1165,577,220,289,2
5,267,270,515,866,1175,561,217,278,2
5,183,235,488,797,1101,456,179,236,2
5,174,186,455,691,1150,384,147,194,2
5,169,199,505,757,1193,528,179,150,2
5,178,211,501,731,1210,533,179,141,2
5,187,194,415,743,1241,553,188,166,2
5,169,200,438,701,1206,519,181,172,2
5,177,200,448,671,1136,543,175,172,2
5,166,185,449,660,1067,505,171,192,2
5,177,201,502,684,996,536,188,217,2
5,162,189,534,635,1062,516,171,190,2
5,156,192,511,669,1083,547,187,233,2
5,189,212,613,843,1177,560,218,252,2
5,189,222,584,806,1233,535,215,249,2
5,183,208,554,785,1224,500,205,232,2
5,178,220,521,790,1096,475,201,229,2
5,196,219,532,799,1068,487,202,242,2
5,184,220,423,665,1019,486,185,233,2
5,194,208,451,787,1049,547,203,225,2
5,187,197,424,814,1012,551,200,242,2
6,189,179,443,776,1009,549,197,243,2
6,174,183,428,781,1104,544,195,196,2
6,176,183,414,772,1062,532,186,195,2
6,182,223,420,861,1185,579,210,212,2
6,189,238,479,895,1275,629,220,187,2
6,202,237,468,908,1265,648,226,197,2
6,198,268,499,945,1295,706,240,217,2
6,219,263,566,978,1362,705,243,208,2
6,199,225,550,817,1136,563,177,201,2
6,200,211,491,826,1173,581,179,237,2
6,187,208,475,845,1171,572,173,236,2
6,199,193,516,809,1066,524,160,218,2
6,161,175,482,728,1059,508,147,232,2
6,163,173,497,716,1224,573,161,221,2
6,168,192,492,730,1173,548,186,202,2
6,189,205,500,732,1216,613,195,199,2
6,220,186,460,743,1239,597,192,202,2
6,228,210,410,824,1250,717,233,190,2
6,240,237,367,792,1196,709,264,217,2
6,235,231,441,853,1223,700,260,237,2
6,239,238,493,824,1212,627,251,254,2
6,219,227,444,739,1211,600,243,255,2
6,215,219,493,659,1230,494,225,319,2
6,215,208,500,815,1288,639,250,309,2
6,209,217,499,820,1316,677,260,288,2
6,213,263,512,995,1483,854,332,312,2
6,194,265,513,1075,1496,909,343,324,2
6,198,269,465,1109,1403,900,336,281,2
6,191,263,466,992,1291,808,303,288,2
6,182,255,399,879,1189,751,277,287,2
6,145,201,359,746,995,589,200,253,2
6,176,243,436,787,960,662,233,253,2
6,157,221,422,782,1141,733,241,230,2
6,156,223,404,806,1170,738,256,217,2
6,174,219,471,902,1344,810,288,228,2
6,171,225,457,837,1388,789,279,227,2
6,157,242,532,842,1498,678,247,209,2
6,162,266,578,896,1433,617,243,247,2
6,163,261,606,955,1460,605,224,321,2
6,226,286,599,877,1306,525,192,537,2
6,346,270,637,901,1302,544,201,596,2
6,461,223,549,836,1307,595,217,685,2
6,486,200,511,821,1398,675,253,706,2
6,486,195,499,776,1362,680,257,690,2
6,464,162,524,825,1498,702,250,558,2
6,404,180,494,957,1500,770,295,518,2
6,264,167,478,1006,1474,755,298,418,2
6,217,174,471,948,1389,677,270,357,2
6,228,189,599,989,1403,660,271,359,2
6,219,179,628,1082,1370,641,282,330,2
7,176,171,633,948,1336,555,240,308,2
7,200,211,703,1058,1314,717,250,342,2
7,242,246,723,1191,1388,813,278,397,2
7,267,253,640,1177,1354,869,288,375,2
7,264,260,613,1066,1247,936,295,363,2
7,310,290,607,1140,1317,992,327,394,2
7,292,277,543,951,1286,890,315,336,2
7,264,278,681,864,1282,836,304,319,2
7,221,271,652,867,1364,874,303,320,2
7,212,280,612,905,1404,840,285,329,2
7,159,271,595,935,1524,859,270,303,2
7,163,266,557,945,1469,848,260,309,2
7,146,230,365,900,1347,823,241,256,2
7,165,234,425,834,1296,728,217,251,2
7,195,238,489,900,1354,751,245,257,2
7,224,302,618,930,1215,726,261,302,2
7,221,357,740,1012,1218,758,275,308,2
7,234,359,748,1006,1343,778,281,318,2
7,222,352,794,1049,1312,762,276,316,2
7,199,352,739,975,1314,769,280,316,2
7,146,280,634,884,1283,745,265,245,2
7,152,228,591,882,1305,760,273,249,2
7,139,231,584,893,1199,752,275,249,2
7,145,221,472,902,1201,795,296,248,2
7,141,201,508,870,1097,725,271,226,2
7,197,256,573,918,1080,746,281,234,2
7,211,252,505,932,1203,720,270,213,2
7,216,258,508,975,1349,756,282,221,2
7,219,283,573,995,1441,716,272,228,2
7,229,282,554,995,1449,718,273,236,2
7,198,246,545,911,1448,644,237,244,2
7,166,220,530,793,1349,573,215,235,2
7,173,206,511,701,1175,449,174,224,2
7,168,187,475,597,1127,438,157,208,2
7,155,200,508,654,1171,417,145,200,2
7,138,199,459,709,1177,448,143,166,2
7,138,210,444,791,1157,556,161,159,2
7,126,219,457,843,1247,591,186,150,2
7,133,229,417,858,1325,639,195,146,2
7,189,258,472,934,1351,792,293,224,2
7,202,254,477,1010,1430,822,313,243,2
7,254,286,549,1045,1442,809,321,249,2
7,249,276,579,1019,1396,792,315,261,2
7,258,296,635,1090,1328,771,319,273,2
7,224,273,694,1001,1285,644,241,296,2
7,217,277,717,882,1167,572,206,320,2
7,170,237,675,755,1162,507,177,322,2
7,161,250,676,726,1225,525,166,315,2
7,135,205,660,626,1188,530,160,303,2
7,125,178,542,560,1176,469,135,224,2
8,130,180,511,552,1157,472,143,165,2
8,115,188,519,685,1266,540,166,158,2
8,123,200,468,782,1290,566,185,156,2
8,160,341,526,912,1364,677,255,247,2
8,164,366,553,1000,1386,722,278,256,2
8,163,378,570,1086,1435,764,287,282,2
8,168,396,587,1061,1337,702,281,285,2
8,198,403,603,1077,1315,705,293,285,2
8,184,315,551,1040,1305,648,254,209,2
8,203,314,564,1070,1342,708,274,261,2
8,201,294,574,1019,1323,697,273,243,2
8,198,270,587,1033,1402,736,274,270,2
8,167,251,593,1000,1388,712,261,268,2
8,160,251,630,1012,1457,736,274,295,2
8,146,228,623,907,1425,637,237,259,2
8,142,224,580,866,1354,603,224,244,2
8,137,229,532,790,1319,608,222,223,2
8,130,231,545,727,1293,612,212,232,2
8,114,239,541,601,1173,530,158,203,2
8,92,234,488,583,1128,531,156,198,2
8,95,225,480,585,1210,525,179,323,2
8,97,206,503,597,1249,462,172,330,2
8,111,224,489,720,1230,545,195,336,2
8,123,192,421,708,1204,498,202,338,2
8,122,183,420,740,1239,489,199,325,2
8,127,202,491,823,1304,527,186,282,2
8,129,208,506,955,1271,656,211,278,2
8,130,186,498,896,1381,617,208,262,2
8,146,211,473,926,1375,716,251,267,2
8,167,242,485,1075,1456,871,315,282,2
8,172,232,426,1011,1398,856,316,232,2
8,176,232,403,891,1363,775,298,233,2
8,170,222,393,946,1344,779,303,236,2
8,152,187,428,940,1348,742,282,232,2
8,130,200,407,793,1290,605,221,233,2
8,120,202,410,808,1297,623,226,204,2
8,111,212,395,810,1352,652,226,194,2
8,98,211,374,727,1321,622,208,184,2
8,99,218,323,777,1375,561,183,173,2
8,98,173,337,798,1435,598,175,178,2
8,94,171,373,825,1450,636,190,229,2
8,141,197,385,982,1428,727,235,274,2
8,151,211,422,945,1373,708,227,274,2
8,154,209,503,894,1438,699,226,275,2
8,153,206,502,816,1320,621,219,260,2
8,163,205,476,802,1309,636,229,239,2
8,133,174,462,638,1286,542,219,220,2
8,142,160,499,702,1321,552,237,237,2
8,138,165,425,673,1203,562,241,254,2
8,147,192,464,831,1253,568,249,277,2
9,147,224,511,884,1256,584,245,279,2
9,180,279,627,988,1349,703,300,295,2
9,182,294,592,1008,1343,706,298,294,2
9,188,299,624,1067,1378,705,307,282,2
9,191,293,641,1002,1316,696,303,269,2
9,186,278,668,1012,1313,684,304,248,2
9,176,281,634,943,1205,543,244,196,2
9,171,287,674,953,1253,628,266,174,2
9,188,307,661,1004,1287,774,301,194,2
9,185,307,627,997,1294,803,308,180,2
9,185,305,554,965,1252,756,296,178,2
9,156,257,513,902,1231,757,282,160,2
9,162,236,476,927,1213,758,279,165,2
9,138,199,457,848,1273,677,253,152,2
9,129,193,455,841,1261,633,244,156,2
9,116,170,470,782,1298,650,234,178,2
9,110,146,398,769,1357,624,225,172,2
9,91,181,482,723,1270,514,181,175,2
9,95,190,505,723,1204,471,151,159,2
9,94,190,485,779,1261,575,190,161,2
9,118,228,475,874,1293,599,212,159,2
9,143,247,564,888,1282,686,244,189,2
9,144,212,466,830,1336,703,256,182,2
9,135,193,439,754,1209,668,247,180,2
9,139,198,429,667,1115,606,221,172,2
9,123,171,417,522,1011,537,194,140,2
9,95,152,314,522,1044,497,165,100,2
9,110,187,406,656,1046,539,168,109,2
9,116,194,417,695,1096,536,165,107,2
9,119,192,422,706,1105,522,158,102,2
9,119,185,429,717,1174,532,159,101,2
9,122,199,436,690,1077,442,142,102,2
9,106,188,401,576,1045,407,123,91,2
9,101,188,414,591,1015,414,128,87,2
9,99,178,442,588,1145,459,133,88,2
9,92,176,431,585,1051,437,130,90,2
9,91,155,417,648,1043,447,135,92,2
9,92,132,437,658,1056,416,132,105,2
9,95,133,398,623,1061,408,136,119,2
9,99,148,398,639,1023,377,148,153,2
9,135,172,465,710,1080,453,176,161,2
9,140,183,491,697,1164,477,184,174,2
9,146,220,470,803,1195,543,204,179,2
9,147,221,540,855,1309,601,210,181,2
9,141,224,526,816,1278,575,198,151,2
9,117,214,506,743,1249,519,173,147,2
9,115,203,506,783,1190,512,173,159,2
9,103,168,486,672,1111,428,142,147,2
9,96,165,460,639,966,392,133,134,2
9,94,164,463,622,951,409,130,166,2
10,98,178,463,687,1211,427,138,171,2
10,93,177,430,612,1281,400,125,146,2
10,87,168,425,662,1346,434,133,146,2
10,87,160,401,712,1376,420,135,148,2
10,86,148,395,778,1430,440,148,113,2
10,90,150,385,789,1331,474,163,105,2
10,115,195,430,837,1268,511,179,111,2
10,115,208,467,781,1306,522,182,105,2
10,125,224,538,801,1313,558,190,112,2
10,130,235,560,849,1269,578,192,118,2
10,120,225,543,811,1199,560,181,112,2
10,93,193,523,725,1174,512,159,95,2
10,113,203,531,832,1195,578,168,125,2
10,108,197,424,812,1273,595,171,130,2
10,121,211,452,852,1355,716,206,145,2
10,118,204,445,845,1322,710,201,141,2
10,129,222,466,930,1399,766,223,154,2
10,115,206,423,831,1305,685,207,130,2
10,119,204,429,791,1277,634,200,117,2
10,124,205,430,876,1261,664,231,135,2
10,134,225,509,978,1368,753,254,151,2
10,131,218,500,963,1364,738,244,143,2
10,129,218,492,989,1396,740,244,144,2
10,133,231,613,1068,1415,772,253,151,2
10,111,214,608,886,1310,604,181,114,2
10,96,194,550,760,1242,479,146,94,2
10,91,196,572,733,1185,446,139,94,2
10,90,188,575,722,1247,442,142,91,2
10,90,230,465,709,1204,408,137,85,2
10,89,223,471,703,1166,384,139,83,2
10,95,225,469,723,1169,445,165,95,2
10,97,211,440,756,1291,475,181,105,2
10,108,254,444,844,1307,575,213,118,2
10,92,199,429,711,1244,560,196,110,2
10,97,194,369,725,1310,586,198,114,2
10,96,184,402,824,1392,660,215,122,2
10,92,187,400,809,1316,661,213,115,2
10,84,169,437,725,1295,597,191,107,2
10,104,188,491,777,1351,609,201,113,2
10,109,203,539,823,1358,633,207,113,2
10,105,227,595,805,1216,535,178,99,2
10,106,221,583,822,1170,550,174,100,2
10,105,192,545,810,1205,575,167,104,2
10,85,176,499,779,1196,542,159,98,2
10,84,186,477,790,1225,510,165,106,2
10,87,171,420,687,1300,489,153,100,2
10,88,180,453,596,1314,430,136,89,2
10,86,183,472,638,1250,435,130,76,2
10,101,211,562,688,1202,453,143,84,2
11,94,200,539,630,1225,432,126,71,2
11,95,188,498,665,1272,445,140,78,2
11,100,195,524,777,1315,498,162,90,2
11,101,202,559,738,1269,467,162,92,2
11,83,166,449,680,1235,440,145,80,2
11,80,151,464,636,1109,432,137,73,2
11,96,151,539,698,954,428,142,79,2
11,107,162,548,698,958,391,135,80,2
11,111,144,508,710,961,365,137,81,2
11,113,153,546,727,1042,397,148,86,2
11,120,164,564,771,1066,391,152,92,2
11,113,174,507,718,1110,388,155,91,2
11,104,179,466,683,1037,358,151,90,2
11,100,189,494,721,1003,359,141,85,2
11,107,206,487,747,1009,378,146,95,2
11,102,208,496,734,1083,410,152,102,2
11,95,212,487,712,1086,414,139,99,2
11,87,191,489,671,1184,434,133,94,2
11,90,196,459,687,1260,453,144,98,2
11,92,182,456,688,1259,454,148,97,2
11,92,182,420,712,1199,457,143,88,2
11,96,174,442,872,1176,575,170,103,2
11,92,167,410,904,1131,583,172,105,2
11,97,156,465,878,1144,591,184,111,2
11,90,149,583,874,1131,568,174,106,2
11,97,145,594,969,1326,629,196,122,2
11,108,150,620,1008,1433,612,200,120,2
11,113,158,619,1031,1422,641,208,122,2
11,105,170,568,1004,1377,624,193,117,2
11,120,245,578,1009,1406,640,199,132,2
11,117,254,553,898,1278,558,173,154,2
11,120,261,516,795,1241,511,168,163,2
11,125,269,517,737,1203,483,173,164,2
11,128,259,521,745,1198,482,175,167,2
11,146,210,432,761,1168,528,192,182,2
11,163,242,514,890,1201,613,226,179,2
11,171,259,564,891,1123,650,241,180,2
11,187,287,598,1093,1155,761,300,197,2
11,190,292,650,1123,1094,764,309,200,2
11,179,291,632,1131,1137,810,326,192,2
11,180,288,647,1186,1144,886,368,213,2
11,170,302,626,1189,1181,922,370,216,2
11,198,281,598,1049,1222,866,351,216,2
11,208,290,542,1123,1369,905,373,224,2
11,206,294,538,1238,1476,935,387,233,2
11,203,288,506,1216,1444,843,354,201,2
11,196,252,479,1177,1415,760,334,182,2
11,206,276,517,1198,1379,741,320,172,2
11,196,269,525,1112,1289,693,288,183,2
11,210,286,537,987,1205,687,292,313,2
12,204,267,505,869,1165,691,277,327,2
12,226,279,509,933,1300,721,298,345,2
12,198,254,488,923,1314,804,316,398,2
12,210,270,514,910,1329,820,319,397,2
12,202,253,557,865,1245,740,275,303,2
12,198,241,527,846,1299,724,263,288,2
12,218,276,550,824,1212,728,306,320,2
12,238,294,555,828,1171,659,291,275,2
12,245,326,555,941,1216,734,365,343,2
12,247,361,507,1063,1271,819,410,413,2
12,254,376,526,1075,1232,829,426,431,2
12,235,353,493,1040,1205,825,390,403,2
12,220,359,552,1099,1269,880,405,396,2
12,205,311,514,1012,1202,821,343,332,2
12,238,253,471,936,1222,746,294,309,2
12,242,272,572,980,1255,760,298,287,2
12,256,303,658,1036,1285,786,346,315,2
12,258,283,604,956,1276,718,328,318,2
12,281,289,647,966,1361,739,328,326,2
12,268,297,646,928,1380,716,323,265,2
12,260,264,539,927,1405,701,306,260,2
12,234,197,427,821,1343,594,228,227,2
12,221,189,443,843,1305,577,199,238,2
12,250,216,426,997,1301,594,235,294,2
12,230,218,433,985,1254,590,227,287,2
12,233,216,425,910,1258,549,208,292,2
12,236,227,427,985,1357,623,227,276,2
12,228,218,392,932,1423,619,235,270,2
12,179,193,357,778,1353,568,193,195,2
12,171,183,386,783,1339,554,191,225,2
12,190,204,460,850,1285,555,189,251,2
12,203,198,461,780,1184,478,164,255,2
12,215,193,454,732,1061,400,134,233,2
12,222,185,467,759,1079,448,163,232,2
12,264,206,455,803,1127,447,171,253,2
12,263,190,453,761,1084,477,187,233,2
12,260,201,448,766,1143,496,203,246,2
12,258,215,488,852,1235,546,235,252,2
12,264,212,460,782,1255,495,218,248,2
12,229,187,439,685,1160,497,211,193,2
12,228,180,446,664,1197,494,199,184,2
12,227,180,447,642,1238,485,188,177,2
12,232,154,407,619,1243,517,167,171,2
12,206,208,494,685,1232,538,165,174,2
12,240,256,510,799,1231,558,187,231,2
12,234,259,452,836,1265,568,201,220,2
12,223,249,463,908,1305,606,213,217,2
12,219,269,500,956,1274,658,247,226,2
12,223,277,547,1071,1279,731,310,249,2
12,246,379,584,1218,1394,886,410,240,2
13,246,387,594,1222,1406,889,415,245,2
13,247,397,590,1192,1304,875,414,247,2
13,237,384,569,1134,1282,804,394,233,2
13,231,357,492,1014,1218,717,343,205,2
13,178,208,423,747,1112,473,200,144,2
13,195,193,400,732,1062,407,173,159,2
13,191,176,470,680,974,354,154,145,2
13,194,211,480,724,998,332,148,200,2
13,216,202,444,697,1056,367,158,378,2
13,219,199,489,746,1094,422,165,414,2
13,209,201,513,683,1138,422,171,421,2
13,230,199,461,681,1241,445,179,437,2
13,243,211,460,634,1224,432,167,417,2
13,222,253,468,752,1199,489,199,298,2
13,205,265,430,810,1338,553,223,254,2
13,182,259,487,866,1268,571,223,247,2
13,219,264,472,880,1219,575,219,251,2
13,214,243,457,831,1232,577,223,261,2
13,257,202,448,733,1207,546,204,263,2
13,281,187,455,587,930,424,154,268,2
13,334,192,520,561,974,454,155,256,2
13,318,181,585,538,966,462,151,226,2
13,315,160,584,653,964,519,173,221,2
13,283,156,572,686,1092,503,159,173,2
13,280,144,556,677,1133,489,159,157,2
13,231,139,452,648,1106,435,148,174,2
13,200,165,346,629,1097,408,145,181,2
13,195,174,428,597,1132,388,126,160,2
13,187,181,495,552,1081,379,113,159,2
13,145,204,498,717,1158,482,149,198,2
13,152,204,471,823,1300,533,169,192,2
13,167,194,471,900,1392,618,202,200,2
13,178,187,423,856,1321,582,194,226,2
13,226,192,391,837,1340,581,204,232,2
13,237,192,463,781,1308,600,206,203,2
13,225,184,502,735,1184,594,204,195,2
13,219,192,608,726,1222,532,191,171,2
13,255,206,624,748,1233,548,205,189,2
13,399,206,610,813,1143,554,210,323,2
13,423,183,585,772,1213,461,185,353,2
13,421,196,611,736,1236,450,175,356,2
13,424,189,538,741,1152,449,175,363,2
13,439,192,483,718,1167,437,161,343,2
13,316,185,483,700,1320,441,164,237,2
13,355,206,453,686,1207,463,176,200,2
13,357,195,379,708,1204,449,176,188,2
13,369,207,422,677,1229,516,189,185,2
13,327,207,430,716,1288,568,205,181,2
13,302,209,429,781,1191,623,226,163,2
13,237,187,428,889,1363,635,235,159,2
14,260,197,442,889,1392,684,289,173,2
14,264,219,510,965,1376,694,304,221,2
14,257,208,513,923,1317,641,292,224,2
4,104,65,85,420,248,218,472,183,1
4,105,66,88,417,238,199,390,175,1
4,136,81,107,466,256,195,433,227,1
4,125,78,105,453,240,195,393,207,1
4,128,72,96,426,219,181,405,199,1
4,140,74,96,413,216,203,399,212,1
4,139,75,90,386,216,200,393,206,1
4,109,59,67,323,194,212,341,153,1
4,128,67,73,348,205,209,364,192,1
4,132,74,78,351,201,258,433,212,1
4,129,82,90,398,239,259,502,197,1
4,143,95,102,439,251,273,524,223,1
4,147,100,105,448,256,256,557,229,1
4,167,116,114,497,290,293,647,268,1
4,213,129,120,454,275,283,644,327,1
4,216,125,111,411,236,275,585,332,1
4,210,120,101,394,236,289,600,331,1
4,226,130,127,460,256,303,585,354,1
4,214,118,121,389,205,289,517,317,1
4,167,98,111,381,199,256,516,257,1
4,158,99,115,401,218,282,561,259,1
4,157,98,115,384,199,288,598,251,1
4,137,84,89,307,177,279,606,221,1
4,141,88,85,341,216,282,650,236,1
4,172,104,91,355,229,338,663,262,1
4,187,109,101,370,250,355,642,269,1
4,198,113,103,387,257,347,640,297,1
5,217,132,129,492,279,386,699,349,1
5,243,143,142,540,288,419,796,400,1
5,240,146,154,596,310,384,774,401,1
5,244,151,153,629,294,342,797,411,1
5,237,147,154,638,315,347,792,391,1
5,216,128,132,544,288,320,743,341,1
5,170,107,122,526,275,287,601,259,1
5,161,105,115,507,264,295,599,247,1
5,141,92,106,487,256,312,643,230,1
5,178,108,110,480,241,304,600,270,1
5,180,107,106,475,238,284,615,272,1
5,176,104,97,421,213,271,581,267,1
5,156,84,81,358,190,266,590,235,1
5,146,76,73,344,199,249,481,213,1
5,86,54,67,360,211,261,490,180,1
5,99,58,73,392,218,267,441,192,1
5,105,64,79,413,232,274,547,204,1
5,104,70,84,436,240,291,511,202,1
5,111,78,90,441,236,290,522,207,1
5,142,94,100,491,260,285,515,200,1
5,129,93,99,499,268,302,558,192,1
5,125,92,105,534,277,276,449,189,1
5,126,85,103,516,269,260,484,202,1
5,140,87,102,490,260,264,646,234,1
5,153,87,101,454,239,307,793,264,1
5,179,101,115,512,246,289,792,299,1
5,198,115,133,573,279,319,808,321,1
5,203,121,139,608,305,339,826,319,1
5,203,126,152,685,335,343,737,310,1
5,198,120,149,669,329,295,597,296,1
5,180,111,141,605,314,295,572,266,1
5,160,98,119,527,270,256,581,235,1
5,167,98,116,508,258,251,581,258,1
5,154,86,95,408,213,238,527,241,1
5,131,86,108,534,244,240,567,239,1
5,150,102,124,604,302,328,623,258,1
5,153,104,124,607,321,347,607,256,1
5,147,104,121,609,318,346,546,233,1
5,147,103,123,597,318,346,567,237,1
5,139,100,124,537,304,343,536,210,1
5,128,91,120,543,278,291,535,212,1
5,143,98,128,540,257,274,559,240,1
5,137,97,136,563,258,260,585,231,1
5,138,97,135,564,261,262,566,222,1
5,138,89,112,492,230,255,630,229,1
5,125,81,108,467,200,208,568,202,1
5,120,78,102,478,206,202,531,181,1
5,126,70,91,425,178,172,501,202,1
5,155,89,98,440,187,223,550,258,1
5,169,100,113,486,221,266,465,273,1
6,170,99,106,434,216,277,480,267,1
6,166,92,98,376,198,272,536,271,1
6,163,94,97,372,201,290,586,254,1
6,133,78,93,373,208,263,544,202,1
6,106,65,83,381,186,215,483,160,1
6,111,69,80,375,185,213,495,190,1
6,142,90,91,419,209,252,535,266,1
6,158,98,102,470,231,273,525,287,1
6,166,106,118,523,269,300,736,316,1
6,176,111,120,513,264,317,800,323,1
6,177,112,134,562,290,328,821,314,1
6,163,111,138,580,291,308,836,268,1
6,169,119,145,602,306,309,872,299,1
6,210,140,165,698,336,275,716,343,1
6,265,174,205,798,410,344,823,476,1
6,280,181,203,795,407,354,837,500,1
6,300,189,212,837,458,367,790,511,1
6,291,183,203,802,447,332,717,488,1
6,257,163,179,676,394,333,712,438,1
6,192,123,129,530,310,235,516,284,1
6,162,104,122,537,306,212,519,233,1
6,101,72,98,428,218,201,484,176,1
6,91,64,93,407,194,222,477,172,1
6,103,73,103,417,205,236,496,192,1
6,123,89,120,504,256,276,569,224,1
6,137,104,129,516,269,296,719,266,1
6,154,115,136,548,268,305,819,309,1
6,158,118,139,553,274,311,894,325,1
6,156,113,130,545,271,311,922,328,1
6,145,101,112,458,224,278,897,310,1
6,158,99,104,396,183,282,777,313,1
6,145,92,100,367,189,275,667,270,1
6,142,95,102,407,210,268,578,250,1
6,164,117,127,499,229,272,556,261,1
6,185,136,142,568,264,302,641,337,1
6,171,130,136,563,272,274,606,319,1
6,188,135,144,605,293,273,722,348,1
6,204,142,158,639,307,315,801,387,1
6,189,132,153,637,320,300,804,379,1
6,172,120,145,603,306,322,782,329,1
6,173,117,145,586,299,343,825,337,1
6,170,117,139,613,304,357,785,334,1
6,171,118,134,591,309,357,775,321,1
6,175,114,121,519,282,376,857,340,1
6,173,113,119,522,296,345,822,333,1
6,164,109,115,523,289,331,829,332,1
6,149,102,108,407,248,317,836,313,1
6,124,85,96,401,238,263,779,278,1
6,120,76,88,393,222,228,692,243,1
6,124,81,87,376,198,228,676,245,1
7,134,87,96,398,212,246,721,220,1
7,123,80,97,458,251,263,664,199,1
7,134,84,98,420,213,269,691,202,1
7,170,100,106,424,225,290,708,275,1
7,165,92,105,438,255,299,765,271,1
7,181,97,105,461,281,284,766,295,1
7,183,99,99,426,262,265,772,297,1
7,184,104,96,484,282,275,762,306,1
7,155,101,100,492,295,276,811,274,1
7,157,103,107,505,267,250,787,274,1
7,146,103,107,505,251,269,763,279,1
7,167,117,131,604,276,286,807,315,1
7,183,125,136,585,295,330,865,329,1
7,187,124,140,630,310,319,803,315,1
7,244,152,164,718,379,350,888,395,1
7,261,162,182,764,439,348,818,385,1
7,291,169,178,729,434,353,840,411,1
7,280,162,176,731,419,316,802,402,1
7,270,154,168,676,393,309,759,395,1
7,225,131,158,689,381,302,616,313,1
7,202,113,133,617,295,296,676,305,1
7,162,98,123,614,307,296,614,268,1
7,168,100,134,646,316,294,556,255,1
7,192,113,140,678,332,316,604,293,1
7,200,112,121,578,291,309,716,309,1
7,195,111,120,575,296,297,695,301,1
7,185,107,126,578,288,271,714,278,1
7,180,99,110,559,277,270,738,292,1
7,163,90,111,538,292,295,722,259,1
7,155,89,122,579,321,291,657,250,1
7,161,92,123,576,315,314,699,275,1
7,164,100,141,578,349,346,727,306,1
7,173,111,147,585,368,349,755,316,1
7,179,112,147,595,347,308,754,314,1
7,177,120,158,624,334,321,709,305,1
7,188,122,161,630,342,311,628,310,1
7,221,121,148,632,313,303,627,318,1
7,232,123,145,611,314,320,659,329,1
7,256,144,174,714,377,382,773,377,1
7,263,141,153,637,376,393,763,382,1
7,251,142,164,710,405,392,822,357,1
7,227,144,176,821,455,404,767,326,1
7,214,141,175,810,450,400,723,315,1
7,195,132,163,796,446,374,638,296,1
7,214,141,183,862,464,397,814,369,1
7,214,139,173,819,443,397,764,379,1
7,209,129,155,658,367,370,753,378,1
7,268,157,205,777,456,403,811,451,1
7,293,176,235,928,526,415,870,476,1
8,294,175,226,888,516,391,829,473,1
8,332,194,236,940,562,450,948,543,1
8,332,194,236,953,575,464,1029,559,1
8,285,172,195,867,499,450,982,499,1
8,254,147,142,644,403,441,912,471,1
8,232,138,132,627,388,431,802,429,1
8,197,113,108,502,301,373,650,357,1
8,221,132,124,567,331,430,610,403,1
8,342,207,178,731,476,530,896,597,1
8,366,224,184,731,476,544,954,636,1
8,360,222,182,715,472,535,953,623,1
8,369,231,193,751,507,559,1049,671,1
8,353,221,185,711,478,505,998,632,1
8,246,156,140,543,352,381,779,462,1
8,199,121,126,516,320,342,727,392,1
8,214,132,135,585,352,366,833,438,1
8,245,160,165,663,437,405,802,407,1
8,242,161,166,671,444,402,842,410,1
8,236,162,168,752,476,409,819,402,1
8,275,183,180,767,505,430,930,470,1
8,264,174,174,705,475,408,857,434,1
8,200,130,132,606,371,304,777,363,1
8,217,140,156,696,420,298,753,377,1
8,221,136,148,618,386,257,726,369,1
8,179,110,140,614,369,247,605,277,1
8,197,131,174,763,449,300,607,285,1
8,197,132,177,798,462,326,598,286,1
8,186,120,154,738,416,332,678,286,1
8,199,131,169,763,444,411,756,320,1
8,196,132,166,733,425,421,727,327,1
8,198,121,134,594,349,399,812,346,1
8,251,141,140,570,338,423,898,417,1
8,250,143,138,563,358,422,833,410,1
8,246,143,132,545,361,369,829,416,1
8,239,140,133,600,387,340,815,403,1
8,221,135,135,619,409,327,733,383,1
8,174,121,142,678,437,297,703,333,1
8,175,118,152,656,428,310,721,345,1
8,170,116,155,669,405,310,668,313,1
8,178,124,161,683,410,309,752,324,1
8,175,121,160,687,391,298,749,318,1
8,164,111,148,622,357,294,664,284,1
8,151,107,133,591,326,291,647,244,1
8,117,86,116,538,312,292,653,224,1
8,107,75,103,512,271,282,547,210,1
8,108,72,94,450,241,285,520,214,1
8,101,69,89,438,216,272,561,205,1
8,100,70,89,435,219,292,536,203,1
8,116,75,81,392,167,270,509,196,1
8,111,69,82,372,184,278,489,177,1
9,112,73,90,452,241,282,538,169,1
9,122,82,97,474,243,276,548,191,1
9,118,79,103,535,287,287,561,182,1
9,104,75,109,548,293,289,559,183,1
9,97,80,115,559,299,279,622,198,1
9,120,85,119,541,280,319,604,252,1
9,128,85,118,506,277,333,563,275,1
9,141,92,118,435,237,292,566,299,1
9,155,98,114,454,252,290,568,306,1
9,156,95,105,387,244,295,526,298,1
9,139,85,90,318,217,246,534,267,1
9,121,78,79,290,213,233,572,235,1
9,103,65,63,267,195,222,584,205,1
9,82,59,66,270,187,209,564,185,1
9,94,68,83,373,197,193,568,210,1
9,131,84,93,412,213,214,622,241,1
9,146,92,103,481,269,215,598,258,1
9,166,109,124,589,294,304,675,328,1
9,211,146,188,765,386,398,823,426,1
9,228,157,188,751,397,441,912,442,1
9,232,163,194,776,420,450,899,456,1
9,231,164,195,760,389,441,898,447,1
9,230,160,186,722,401,398,841,425,1
9,195,132,129,570,334,324,707,341,1
9,200,136,143,654,348,284,660,360,1
9,245,159,180,674,399,368,728,471,1
9,271,178,204,761,471,415,805,537,1
9,306,200,234,796,503,460,842,576,1
9,325,210,237,782,504,477,893,606,1
9,312,199,228,718,488,485,884,587,1
9,292,195,244,863,504,406,853,518,1
9,272,182,225,790,448,379,805,459,1
9,261,180,242,860,506,447,867,490,1
9,273,187,245,880,508,457,863,522,1
9,294,197,248,877,504,445,826,533,1
9,273,179,200,689,438,465,793,508,1
9,275,178,204,677,439,480,852,517,1
9,240,152,149,522,303,357,731,416,1
9,194,122,130,470,270,297,685,320,1
9,160,111,123,450,270,292,709,323,1
9,145,102,117,437,248,245,655,286,1
9,147,105,138,577,322,236,584,296,1
9,184,134,163,666,352,269,680,361,1
9,191,138,164,667,352,279,641,361,1
9,189,136,164,658,345,298,600,342,1
9,200,136,163,642,340,328,691,352,1
9,184,125,132,538,260,309,688,314,1
9,149,92,89,400,210,324,571,242,1
9,144,83,81,353,202,326,583,232,1
9,149,80,71,333,184,297,575,209,1
10,131,75,69,345,191,265,464,192,1
10,123,80,72,305,189,263,406,175,1
10,129,86,104,383,208,214,403,182,1
10,126,90,108,401,210,221,448,190,1
10,105,79,103,389,202,210,437,170,1
10,102,79,110,394,193,215,451,174,1
10,111,82,113,390,175,215,459,206,1
10,195,139,152,551,296,281,644,339,1
10,238,170,181,690,410,379,702,406,1
10,246,178,191,720,427,412,741,425,1
10,252,181,201,784,451,427,760,438,1
10,253,182,204,816,469,431,806,441,1
10,186,139,161,687,391,386,686,343,1
10,135,99,125,575,290,277,632,260,1
10,146,105,130,604,308,297,590,278,1
10,156,113,115,556,307,329,642,276,1
10,178,115,106,501,282,328,668,310,1
10,197,130,112,536,299,327,694,331,1
10,199,134,118,569,296,339,686,341,1
10,181,120,98,503,266,310,762,305,1
10,176,110,90,462,245,275,725,299,1
10,177,116,118,534,285,287,745,305,1
10,163,101,116,533,286,308,748,293,1
10,160,97,111,465,274,323,754,289,1
10,173,104,119,508,269,330,756,293,1
10,169,104,121,534,253,322,744,275,1
10,136,82,91,490,221,298,678,199,1
10,142,79,88,443,208,279,664,190,1
10,137,83,90,458,225,276,685,181,1
10,117,72,75,419,226,263,580,169,1
10,117,76,82,414,245,259,559,168,1
10,115,77,88,412,244,256,524,186,1
10,110,80,87,411,229,256,520,184,1
10,117,73,88,411,210,245,492,181,1
10,128,82,93,410,207,243,505,205,1
10,126,77,90,392,197,243,540,233,1
10,134,84,92,388,192,253,552,234,1
10,133,79,92,373,191,245,513,235,1
10,149,87,93,419,210,232,517,252,1
10,157,88,97,434,238,270,534,260,1
10,153,90,94,417,237,268,589,235,1
10,161,85,87,397,227,263,614,255,1
10,153,87,94,474,263,298,676,248,1
10,132,76,91,440,254,296,646,225,1
10,128,77,88,450,250,300,705,231,1
10,134,73,84,449,245,298,664,242,1
10,135,80,95,496,279,305,637,231,1
10,136,76,89,415,245,280,597,228,1
10,148,82,88,412,268,285,578,241,1
10,142,77,90,425,260,226,478,226,1
11,135,81,97,431,255,212,446,215,1
11,124,73,90,413,232,247,380,199,1
11,128,80,86,417,233,236,334,193,1
11,118,80,106,531,268,276,386,202,1
11,129,86,105,506,272,297,372,195,1
11,141,86,101,512,285,302,426,205,1
11,145,90,104,525,292,271,464,203,1
11,217,127,129,579,338,370,693,314,1
11,218,123,108,481,279,337,704,305,1
11,208,118,109,485,282,342,731,294,1
11,201,119,112,495,286,364,758,293,1
11,206,119,109,484,295,366,749,299,1
11,130,78,82,420,238,278,583,201,1
11,155,92,87,397,268,333,613,250,1
11,159,98,88,391,261,340,613,263,1
11,156,96,83,361,242,319,528,255,1
11,143,93,83,347,229,333,553,242,1
11,140,94,83,331,236,325,555,247,1
11,104,79,80,319,207,280,533,191,1
11,112,74,73,322,223,288,535,211,1
11,122,79,78,332,223,298,572,231,1
11,160,95,95,395,224,277,532,262,1
11,166,98,92,414,229,278,495,251,1
11,201,128,142,550,258,300,624,338,1
11,207,141,150,556,236,266,667,346,1
11,202,138,151,576,231,243,627,333,1
11,198,139,151,575,237,254,674,345,1
11,193,138,154,597,243,281,687,347,1
11,165,112,109,470,206,240,588,276,1
11,150,92,97,451,196,254,508,236,1
11,152,94,96,423,200,259,534,244,1
11,118,75,88,367,200,269,535,202,1
11,109,63,78,300,182,249,512,186,1
11,97,60,81,311,189,245,498,161,1
11,93,59,80,286,185,223,527,162,1
11,88,55,77,296,184,225,577,146,1
11,86,49,60,239,157,202,546,110,1
11,88,54,65,289,165,192,568,135,1
11,88,59,61,334,173,211,518,143,1
11,90,66,62,354,179,239,520,159,1
11,95,69,67,358,199,265,523,187,1
11,103,73,67,352,191,263,531,208,1
11,111,78,72,357,228,302,605,209,1
11,115,77,76,321,246,301,633,210,1
11,115,73,78,330,246,273,619,205,1
11,117,70,78,362,247,242,576,186,1
11,106,63,78,364,248,243,559,162,1
11,96,53,79,356,217,232,445,139,1
11,92,46,80,369,187,251,415,126,1
11,91,55,96,444,218,259,493,116,1
12,75,52,91,406,200,262,481,104,1
12,89,61,102,428,195,263,465,116,1
12,95,65,101,412,207,238,474,128,1
12,92,66,99,396,201,210,471,140,1
12,86,57,77,275,165,193,364,141,1
12,89,57,75,281,166,195,324,140,1
12,88,55,58,255,175,188,423,141,1
12,82,56,55,240,160,196,443,132,1
12,84,56,51,224,165,206,445,118,1
12,96,56,51,237,183,230,436,126,1
12,103,66,61,282,196,233,468,135,1
12,107,71,73,333,218,248,369,143,1
12,111,73,82,381,236,242,379,139,1
12,129,75,83,396,250,237,374,159,1
12,123,76,89,411,244,231,448,149,1
12,117,73,93,426,246,228,432,152,1
12,106,66,89,392,225,267,554,149,1
12,102,69,95,448,216,268,547,154,1
12,73,66,95,448,212,264,538,133,1
12,73,69,96,469,234,291,506,138,1
12,79,67,91,443,228,299,541,155,1
12,82,64,88,458,236,253,432,146,1
12,87,58,75,381,212,281,488,154,1
12,92,56,70,373,198,289,490,159,1
12,96,54,62,321,159,257,496,165,1
12,92,50,60,291,143,254,451,146,1
12,89,55,61,260,129,252,468,161,1
12,84,53,58,266,168,232,410,166,1
12,83,54,60,261,186,222,414,160,1
12,83,56,69,327,189,236,388,170,1
12,91,59,68,328,192,235,439,169,1
12,90,59,74,340,198,262,451,156,1
12,88,57,78,354,168,266,441,141,1
12,89,57,88,399,157,274,419,148,1
12,87,53,80,354,160,287,435,130,1
12,81,53,89,396,162,282,404,135,1
12,92,52,87,391,160,252,401,140,1
12,105,64,100,394,184,249,460,165,1
12,110,69,93,343,178,255,543,177,1
12,110,70,94,345,188,253,530,170,1
12,109,70,88,298,202,271,512,166,1
12,111,71,85,284,195,282,499,180,1
12,107,73,92,356,264,298,511,195,1
12,118,82,103,409,273,298,500,218,1
12,124,84,106,429,266,271,546,233,1
12,138,93,122,515,304,269,609,260,1
12,148,102,127,554,316,271,633,287,1
12,143,94,111,505,251,242,584,263,1
12,137,86,110,504,255,225,559,259,1
12,136,86,111,521,266,243,518,251,1
13,123,73,95,461,231,242,450,218,1
13,105,64,92,425,230,266,488,165,1
13,107,62,89,406,228,298,609,172,1
13,100,58,73,353,208,306,611,136,1
13,113,57,65,294,190,310,620,140,1
13,115,62,63,293,174,296,628,157,1
13,120,75,104,488,256,337,709,185,1
13,124,82,106,485,262,323,627,221,1
13,120,83,113,527,280,327,597,220,1
13,124,83,115,532,291,319,588,227,1
13,137,96,143,590,301,344,672,243,1
13,139,84,116,461,229,289,547,219,1
13,143,80,117,482,237,264,511,180,1
13,147,82,118,479,223,256,557,186,1
13,133,80,117,475,207,247,597,177,1
13,117,62,83,369,187,202,497,134,1
13,112,63,81,358,184,212,496,145,1
13,116,66,78,313,161,230,543,176,1
13,119,66,69,259,164,241,536,184,1
13,122,69,69,267,163,259,487,194,1
13,117,65,63,280,152,270,505,199,1
13,124,69,60,263,158,284,498,202,1
13,110,64,59,260,156,278,499,174,1
13,104,61,60,239,137,264,480,152,1
13,93,60,70,250,164,266,482,131,1
13,91,60,73,287,166,261,474,129,1
13,79,56,72,283,166,236,478,126,1
13,79,61,87,325,184,266,435,129,1
13,82,65,87,345,218,271,428,151,1
13,114,76,95,366,220,277,445,207,1
13,119,78,92,335,224,277,435,214,1
13,117,76,97,365,229,271,450,214,1
13,117,70,87,356,221,237,431,212,1
13,114,73,104,423,242,249,414,201,1
13,80,57,92,397,222,224,430,141,1
13,84,57,93,389,217,220,481,142,1
13,99,60,90,389,208,220,435,157,1
13,94,61,88,396,202,221,515,159,1
13,107,62,74,375,201,237,545,187,1
13,111,70,83,402,209,241,601,211,1
13,108,70,89,406,216,262,571,207,1
13,101,64,89,411,233,257,586,196,1
13,103,67,93,425,253,250,567,192,1
13,99,78,106,467,269,244,590,166,1
13,102,78,101,446,276,249,552,146,1
13,110,82,99,485,294,273,603,164,1
13,103,84,101,479,286,275,602,153,1
13,106,85,101,463,272,291,577,165,1
13,95,68,83,362,217,283,536,162,1
13,82,59,78,352,201,269,509,158,1
14,69,51,71,306,182,235,428,132,1
14,75,55,62,255,168,274,528,149,1
14,107,69,69,324,198,290,611,182,1
14,121,75,68,340,208,299,639,205,1
14,123,75,69,340,208,312,656,201,1
14,125,77,81,349,188,305,669,202,1
14,139,80,88,361,206,275,656,214,1
14,117,66,75,275,198,251,575,186,1
14,102,58,76,267,184,244,525,159,1
14,106,63,80,267,181,236,500,165,1
14,104,62,70,307,205,237,490,176,1
14,82,52,67,320,198,219,363,145,1
14,77,52,71,343,188,200,375,141,1
14,122,63,70,381,221,211,436,176,1
14,120,62,65,377,229,201,461,165,1
14,125,66,80,396,216,193,463,159,1
14,122,66,83,409,204,212,490,158,1
14,137,75,93,429,201,252,509,194,1
14,134,83,103,424,185,260,597,233,1
14,167,98,113,443,196,288,595,290,1
14,182,111,119,431,185,295,617,318,1
14,198,122,125,432,205,302,645,347,1
14,189,118,119,405,207,287,629,332,1
14,180,116,118,433,205,296,528,298,1
14,186,121,120,442,207,293,576,284,1
14,197,126,126,474,235,309,590,297,1
14,203,137,148,596,300,339,647,321,1
14,225,145,153,626,318,342,742,357,1
14,228,145,155,634,329,339,751,372,1
14,201,134,148,617,319,332,678,348,1
14,174,115,129,555,307,314,637,307,1
14,151,94,95,418,257,271,586,265,1
14,133,91,99,399,226,262,543,259,1
14,140,94,98,347,201,241,514,265,1
14,144,95,105,379,197,225,527,262,1
14,147,96,107,393,196,241,593,283,1
14,146,92,106,364,176,250,574,269,1
14,133,81,91,333,188,250,467,217,1
14,98,61,78,318,187,224,445,169,1
14,87,54,65,283,183,228,449,170,1
14,89,59,72,277,176,217,331,137,1
14,83,59,75,308,192,189,274,127,1
14,83,59,76,320,197,204,291,133,1
14,94,64,73,297,197,216,324,139,1
14,95,65,76,298,203,205,313,141,1
14,83,56,65,283,199,188,318,134,1
14,91,53,59,260,169,195,303,130,1
14,86,51,62,273,150,173,397,134,1
14,81,49,68,329,162,192,435,136,1
15,78,47,65,336,169,230,450,119,1
15,81,47,67,348,183,251,512,120,1
15,72,46,67,340,199,266,576,129,1
15,75,50,64,303,191,271,525,129,1
15,81,51,59,261,200,258,561,142,1
15,85,56,65,265,215,246,551,148,1
15,89,56,65,244,212,256,499,152,1
15,116,65,69,264,206,242,430,151,1
15,117,62,68,259,207,239,416,136,1
15,108,55,63,234,176,247,290,120,1
15,107,52,56,221,156,239,317,124,1
15,112,59,66,255,159,222,310,134,1
15,91,57,66,237,143,217,344,145,1
15,94,55,66,255,155,222,351,155,1
15,101,58,67,261,187,233,355,150,1
15,106,58,67,248,191,234,299,145,1
15,97,53,54,246,211,283,424,145,1
15,90,49,55,276,233,290,415,142,1
15,85,51,50,259,231,292,444,134,1
15,84,48,53,257,227,267,466,132,1
4,17,19,20,36,65,70,28,24,3
4,20,22,24,39,66,74,34,28,3
4,25,23,29,41,67,81,36,29,3
4,28,25,32,41,71,80,36,28,3
4,29,24,33,39,63,81,36,25,3
4,29,25,33,40,62,81,35,26,3
4,29,26,31,39,67,78,29,22,3
4,24,25,26,40,67,69,29,23,3
4,22,24,24,42,63,64,27,23,3
4,20,24,23,44,62,69,28,23,3
4,21,23,25,45,62,68,30,22,3
4,20,23,24,44,58,76,30,20,3
4,20,23,25,40,58,81,29,20,3
4,20,22,24,41,57,78,32,21,3
4,20,23,21,40,52,72,31,23,3
4,19,23,19,42,54,69,30,24,3
4,19,23,22,43,57,68,33,26,3
4,17,22,23,45,62,72,36,27,3
5,18,22,23,44,65,74,36,26,3
5,19,22,23,50,69,79,36,26,3
5,20,22,24,49,67,79,39,23,3
5,22,19,21,45,63,77,36,23,3
5,23,20,21,43,65,73,36,21,3
5,23,21,24,45,67,69,34,20,3
5,22,22,23,41,69,65,41,21,3
5,21,21,22,37,66,73,37,21,3
5,21,22,23,37,65,69,39,22,3
5,19,23,24,40,58,68,39,24,3
5,20,22,21,43,52,72,44,27,3
5,21,22,23,46,54,73,45,28,3
5,20,22,23,48,63,69,45,29,3
5,19,21,22,49,67,73,43,28,3
5,19,20,23,47,67,73,42,25,3
5,18,21,23,44,70,87,37,24,3
5,17,20,24,44,73,89,30,21,3
5,18,21,24,40,70,88,31,21,3
5,17,21,24,42,69,90,33,21,3
5,18,20,23,48,70,94,32,23,3
5,20,19,24,46,66,83,42,23,3
5,21,20,24,41,57,85,43,25,3
5,22,19,24,41,56,86,44,23,3
5,23,18,23,40,55,91,44,22,3
5,22,19,24,41,54,86,43,21,3
5,21,21,24,46,64,97,35,21,3
5,19,20,25,45,62,95,35,19,3
5,19,20,24,46,65,109,35,21,3
5,18,20,24,47,64,107,36,22,3
5,20,22,23,37,66,107,35,22,3
5,17,22,22,34,63,93,33,20,3
5,18,24,24,36,67,90,31,21,3
5,18,26,25,36,60,72,29,20,3
5,17,27,24,35,58,75,29,19,3
5,18,26,25,38,58,79,33,20,3
5,19,25,23,37,54,77,38,21,3
5,19,23,20,38,54,82,37,21,3
5,20,24,22,40,61,93,39,23,3
5,20,23,22,39,71,92,40,23,3
5,18,23,21,37,73,104,38,22,3
5,19,23,23,40,69,107,35,22,3
5,19,23,23,39,70,102,36,22,3
5,21,22,21,37,66,121,44,24,3
5,22,21,21,36,57,120,51,24,3
5,21,22,23,38,56,117,52,26,3
5,22,22,22,42,68,136,56,26,3
5,22,22,22,44,67,149,56,25,3
5,20,21,22,46,65,129,51,23,3
5,20,22,24,46,65,124,44,22,3
6,21,23,24,46,61,114,43,20,3
6,21,24,27,42,52,89,40,20,3
6,20,25,27,48,58,81,37,20,3
6,19,25,27,50,57,94,31,20,3
6,19,25,26,51,55,95,37,21,3
6,18,22,25,50,59,107,36,21,3
6,17,22,22,51,60,109,36,20,3
6,20,22,23,44,58,103,37,21,3
6,19,22,21,39,58,91,38,22,3
6,19,23,22,38,59,105,34,22,3
6,21,23,21,40,55,98,37,24,3
6,21,24,22,39,55,94,35,24,3
6,18,23,22,44,74,90,35,23,3
6,19,23,23,46,76,83,37,23,3
6,20,22,23,50,95,62,35,24,3
6,20,22,25,52,98,55,30,22,3
6,20,21,23,57,99,52,30,22,3
6,20,20,23,51,81,63,33,22,3
6,19,22,23,50,83,67,30,23,3
6,18,21,25,46,61,80,29,20,3
6,17,21,23,46,56,79,30,20,3
6,17,21,28,40,54,82,33,22,3
6,17,22,27,40,56,75,30,22,3
6,19,20,27,40,56,74,30,21,3
6,18,20,25,39,55,76,31,21,3
6,17,19,26,34,58,81,36,23,3
6,19,19,23,37,61,98,34,21,3
6,19,19,24,36,57,102,34,22,3
6,20,20,24,37,59,104,35,23,3
6,22,20,24,40,60,98,35,24,3
6,26,20,25,39,61,96,30,25,3
6,25,21,23,38,70,97,42,24,3
6,24,21,24,40,73,91,45,24,3
6,22,20,24,41,71,88,46,23,3
6,20,20,25,43,185,94,51,20,3
6,15,21,26,54,212,99,52,22,3
6,16,23,27,54,209,79,43,22,3
6,17,23,26,52,213,95,38,20,3
6,18,25,26,52,218,94,36,22,3
6,19,26,25,49,142,96,31,22,3
6,20,25,23,41,100,92,30,20,3
6,19,24,23,43,103,92,29,21,3
6,19,23,23,43,92,76,29,22,3
6,18,21,23,41,78,88,30,22,3
6,18,22,23,41,64,75,32,24,3
6,20,21,26,47,65,72,31,23,3
6,20,22,26,45,55,76,33,24,3
6,19,22,26,44,62,79,33,24,3
6,18,22,27,45,60,62,34,22,3
6,19,20,27,44,59,64,31,21,3
7,18,21,26,42,59,64,31,22,3
7,19,21,26,39,63,65,29,19,3
7,20,22,26,41,57,63,29,21,3
7,21,23,25,40,60,65,32,23,3
7,21,23,24,41,61,63,30,22,3
7,22,23,23,35,55,68,29,21,3
7,21,22,22,43,57,64,33,23,3
7,21,22,22,44,56,64,35,22,3
7,22,21,21,45,54,65,38,20,3
7,22,22,22,45,54,69,38,21,3
7,21,23,21,52,54,67,40,23,3
7,21,24,22,46,48,64,39,22,3
7,20,24,22,43,58,74,39,22,3
7,18,25,23,43,60,74,39,22,3
7,18,22,22,42,60,73,38,22,3
7,17,21,21,32,59,71,40,20,3
7,19,22,21,36,58,68,44,21,3
7,20,22,22,40,49,62,44,20,3
7,22,23,24,43,52,64,42,21,3
7,23,23,26,42,54,64,46,19,3
7,24,24,26,44,52,63,47,20,3
7,22,22,26,42,52,63,49,20,3
7,23,23,24,41,55,62,51,20,3
7,22,22,24,38,49,66,49,19,3
7,20,24,23,39,45,67,46,21,3
7,19,22,23,36,48,66,48,21,3
7,20,23,24,38,47,69,45,23,3
7,19,22,23,38,53,65,41,22,3
7,18,22,22,37,53,54,40,23,3
7,20,22,22,39,59,53,39,23,3
7,21,22,22,39,61,60,31,23,3
7,21,22,20,36,62,61,27,23,3
7,22,25,22,35,57,71,28,24,3
7,23,25,21,36,58,74,27,23,3
7,23,23,20,36,67,81,36,23,3
7,22,25,19,37,76,81,41,23,3
7,21,24,20,38,75,80,39,20,3
7,18,21,20,40,80,72,38,19,3
7,17,20,20,40,83,70,39,21,3
7,17,21,21,39,72,60,37,22,3
7,17,18,22,37,60,55,31,22,3
7,18,23,22,45,67,61,36,23,3
7,19,22,22,45,65,64,40,23,3
7,19,22,23,46,60,63,40,23,3
7,18,24,25,47,66,62,34,21,3
7,17,23,25,51,66,65,34,21,3
7,17,19,26,41,60,60,30,22,3
7,18,19,26,38,63,58,28,26,3
7,18,20,23,40,61,58,39,25,3
7,19,19,24,38,53,55,42,27,3
8,18,19,24,41,51,50,43,28,3
8,17,20,23,42,55,54,43,26,3
8,17,20,21,47,46,50,42,23,3
8,20,23,23,46,49,52,34,23,3
8,19,21,20,47,50,57,38,22,3
8,19,22,20,47,51,52,41,23,3
8,20,22,20,47,43,48,44,24,3
8,20,22,22,41,43,52,45,25,3
8,19,19,20,41,46,50,42,24,3
8,18,23,21,41,46,49,39,24,3
8,17,24,20,40,51,65,38,22,3
8,18,24,20,46,60,75,39,22,3
8,18,24,19,47,68,77,45,23,3
8,17,24,20,47,68,76,46,24,3
8,18,23,20,49,74,75,49,24,3
8,20,20,21,43,74,63,49,25,3
8,20,20,21,36,69,55,50,24,3
8,18,21,21,35,62,62,54,22,3
8,19,19,21,38,63,68,66,26,3
8,19,19,21,42,60,73,68,27,3
8,18,20,20,44,56,77,71,28,3
8,17,19,22,42,56,73,69,27,3
8,19,21,22,43,54,61,65,27,3
8,19,21,22,43,52,53,55,23,3
8,19,21,26,37,45,42,51,22,3
8,20,22,27,33,46,35,44,22,3
8,20,23,25,34,46,30,46,22,3
8,19,22,24,32,44,30,42,25,3
8,19,22,24,28,42,32,42,25,3
8,20,24,25,34,51,40,49,27,3
8,18,25,26,38,51,54,55,26,3
8,18,25,26,40,54,56,63,29,3
8,19,25,27,39,55,57,61,27,3
8,18,25,27,39,54,56,64,26,3
8,17,23,21,33,47,55,62,26,3
8,17,20,22,37,48,47,65,25,3
8,17,21,23,37,50,45,59,24,3
8,16,20,21,41,55,47,60,24,3
8,18,19,22,42,62,52,57,24,3
8,18,20,24,45,74,62,55,24,3
8,18,20,22,43,110,62,73,26,3
8,18,21,24,47,189,73,87,26,3
8,20,20,25,56,297,81,88,27,3
8,19,22,27,63,324,83,87,30,3
8,19,22,26,60,326,73,85,28,3
8,18,21,25,58,320,71,75,26,3
8,19,22,26,60,325,73,58,24,3
8,18,23,28,59,329,68,59,22,3
8,21,24,29,63,329,71,60,22,3
8,21,24,30,70,337,84,70,22,3
9,21,25,31,71,341,84,68,25,3
9,20,22,30,68,325,75,92,24,3
9,19,23,28,62,240,74,93,26,3
9,17,20,27,48,214,67,94,24,3
9,17,20,25,41,192,57,90,24,3
9,17,20,24,40,208,61,82,22,3
9,20,20,24,42,182,61,61,22,3
9,20,22,24,41,185,60,62,20,3
9,19,22,21,47,172,59,62,24,3
9,21,22,23,46,177,58,69,23,3
9,22,22,23,44,144,61,90,23,3
9,21,22,22,41,150,60,90,24,3
9,21,20,21,41,128,63,90,24,3
9,23,20,22,33,127,62,94,22,3
9,22,18,21,31,122,59,96,23,3
9,21,18,21,33,119,54,95,28,3
9,21,18,20,31,79,53,93,28,3
9,21,19,21,28,58,55,95,30,3
9,18,20,21,27,60,63,95,30,3
9,18,22,23,29,55,65,87,29,3
9,17,22,25,28,58,61,75,25,3
9,17,22,26,25,65,60,75,25,3
9,17,21,26,29,70,60,84,28,3
9,18,20,26,33,68,55,85,28,3
9,19,20,25,35,75,57,88,28,3
9,20,20,25,36,96,57,80,26,3
9,21,21,24,37,94,63,74,27,3
9,21,22,23,35,91,56,55,22,3
9,20,25,22,34,94,53,42,19,3
9,20,24,21,34,90,54,45,18,3
9,20,25,21,34,64,60,59,20,3
9,21,25,21,35,74,59,64,21,3
9,21,24,21,36,77,65,78,25,3
9,23,23,21,34,70,66,78,30,3
9,21,23,20,33,67,64,78,34,3
9,21,22,20,30,68,61,70,33,3
9,19,21,19,28,52,62,67,33,3
9,20,24,19,25,50,57,49,30,3
9,21,25,20,25,63,61,50,28,3
9,22,28,21,25,72,61,54,25,3
9,22,26,20,24,68,58,53,23,3
9,21,26,19,25,67,53,56,23,3
9,20,24,21,26,72,56,58,22,3
9,18,23,20,25,69,49,57,19,3
9,17,21,20,24,62,49,52,20,3
9,17,22,20,25,66,53,50,21,3
9,19,23,23,26,70,64,68,21,3
9,20,24,22,27,61,60,71,20,3
9,21,23,22,28,56,67,85,23,3
9,20,22,22,30,61,69,85,23,3
10,21,21,21,30,59,73,86,25,3
10,18,22,20,31,54,65,70,23,3
10,19,22,22,29,62,70,70,23,3
10,17,23,21,29,64,66,51,22,3
10,17,23,21,27,65,62,45,21,3
10,18,24,22,27,61,56,53,21,3
10,18,22,22,26,63,52,55,21,3
10,17,20,20,24,54,46,52,22,3
10,17,20,20,24,49,51,57,21,3
10,19,22,22,25,45,58,55,21,3
10,18,23,21,25,50,57,48,19,3
10,20,25,23,28,55,58,49,23,3
10,21,26,23,30,63,62,50,21,3
10,22,26,25,32,71,72,46,23,3
10,21,25,23,30,74,74,53,24,3
10,21,25,24,31,77,81,53,26,3
10,19,23,20,29,81,83,52,24,3
10,18,24,20,30,77,81,52,25,3
10,16,25,20,27,72,72,48,24,3
10,16,24,21,28,69,66,39,23,3
10,18,26,21,27,69,65,33,22,3
10,17,24,23,25,69,68,31,21,3
10,18,23,24,24,69,67,28,21,3
10,18,21,22,24,66,61,32,21,3
10,16,21,21,25,63,73,39,23,3
10,17,21,22,25,61,65,41,21,3
10,17,23,22,27,58,60,42,22,3
10,16,23,21,26,57,66,40,22,3
10,18,26,23,29,66,73,43,20,3
10,21,26,22,29,66,63,54,17,3
10,20,24,22,29,62,63,58,17,3
10,19,22,22,29,56,62,59,20,3
10,22,22,23,29,54,55,62,20,3
10,21,20,20,27,50,46,58,22,3
10,19,22,23,26,47,39,46,22,3
10,20,22,21,26,49,49,50,23,3
10,20,23,23,25,58,54,55,21,3
10,20,22,22,24,58,56,58,20,3
10,20,24,22,26,58,57,59,18,3
10,19,21,19,29,63,58,58,17,3
10,19,21,21,31,62,59,53,18,3
10,19,22,20,30,58,64,47,17,3
10,17,23,19,30,60,66,48,20,3
10,17,19,24,28,60,70,52,21,3
10,18,21,25,29,59,72,54,23,3
10,17,21,25,27,58,67,50,22,3
10,18,21,26,26,55,62,58,23,3
10,19,22,28,26,55,67,63,22,3
10,19,23,25,26,53,64,62,23,3
10,18,22,24,22,57,63,61,20,3
11,20,22,24,26,60,65,67,21,3
11,19,23,23,27,58,64,73,22,3
11,18,21,22,26,56,63,65,23,3
11,19,22,22,27,54,61,61,20,3
11,20,22,22,27,45,63,61,22,3
11,20,23,21,22,43,61,55,21,3
11,22,23,21,21,52,63,44,22,3
11,23,22,19,23,54,58,48,22,3
11,22,21,18,24,53,70,55,23,3
11,22,20,19,25,57,68,54,24,3
11,20,19,20,26,67,73,54,23,3
11,20,19,21,29,62,71,47,21,3
11,19,19,21,28,69,69,47,19,3
11,19,20,22,29,71,63,42,18,3
11,19,21,22,28,70,63,40,18,3
11,19,21,23,28,65,57,38,19,3
11,18,22,23,27,63,55,42,20,3
11,19,23,22,27,55,59,57,21,3
11,20,24,21,25,50,53,60,22,3
11,20,24,21,26,54,54,61,22,3
11,18,24,18,26,46,59,62,23,3
11,18,23,19,25,57,61,63,22,3
11,19,22,21,27,61,59,44,22,3
11,19,21,21,30,65,62,42,21,3
11,17,20,21,30,60,63,43,20,3
11,20,20,24,30,65,58,51,22,3
11,20,19,22,30,54,54,55,23,3
11,19,19,21,29,50,61,55,22,3
11,18,21,21,28,51,63,51,21,3
11,19,22,23,28,57,64,58,22,3
11,17,22,19,29,59,68,54,20,3
11,17,22,20,28,62,70,46,20,3
11,18,21,22,27,63,64,45,21,3
11,18,20,23,28,59,75,45,22,3
11,20,19,21,29,54,71,40,21,3
11,20,19,23,28,59,79,38,21,3
11,20,21,25,29,58,81,44,22,3
11,20,24,23,32,58,86,44,22,3
11,20,23,23,32,56,75,48,22,3
11,17,23,22,32,60,76,46,21,3
11,16,23,22,33,53,66,48,21,3
11,15,22,22,32,57,63,41,21,3
11,17,16,24,32,59,59,51,18,3
11,19,20,23,31,61,68,52,19,3
11,21,22,24,33,61,71,51,19,3
11,22,23,23,35,66,75,48,20,3
11,23,23,24,35,67,97,55,20,3
11,25,26,23,34,67,155,71,30,3
11,24,25,25,36,73,158,68,30,3
11,21,24,25,33,73,162,75,30,3
12,22,23,25,30,67,157,76,30,3
12,21,24,22,31,62,145,72,30,3
12,18,21,21,30,64,89,50,23,3
12,17,21,21,26,60,84,52,23,3
12,19,21,21,28,60,81,45,24,3
12,18,21,21,25,61,87,45,23,3
12,19,20,24,26,60,87,47,24,3
12,19,21,24,28,55,75,51,24,3
12,19,19,22,29,54,63,51,24,3
12,21,22,24,28,54,59,46,24,3
12,21,22,24,30,50,53,46,25,3
12,21,21,24,28,56,52,47,23,3
12,21,23,25,25,56,64,45,22,3
12,22,23,26,24,55,63,44,21,3
12,21,23,24,22,52,58,46,19,3
12,20,23,24,21,50,59,45,21,3
12,22,25,21,22,46,63,48,20,3
12,21,23,20,23,54,54,43,21,3
12,21,23,20,26,54,53,43,20,3
12,21,21,22,27,55,61,42,21,3
12,20,20,20,30,57,63,50,20,3
12,18,19,20,31,59,62,43,20,3
12,19,19,21,32,58,63,41,19,3
12,20,19,20,30,59,76,38,21,3
12,20,19,20,31,57,71,36,19,3
12,20,19,20,27,55,69,40,19,3
12,21,20,20,24,54,66,44,20,3
12,21,21,19,22,49,68,46,23,3
12,20,22,19,26,50,59,48,22,3
12,21,21,18,25,55,71,48,23,3
12,21,22,19,26,60,69,37,23,3
12,20,23,18,26,58,75,35,22,3
12,19,22,18,29,57,72,34,19,3
12,17,22,19,26,51,72,31,19,3
12,16,22,18,26,49,67,34,19,3
12,17,21,18,27,47,69,38,18,3
12,17,19,22,28,51,62,39,19,3
12,18,21,23,27,56,64,39,18,3
12,21,23,23,26,58,61,42,20,3
12,22,22,24,26,56,61,39,18,3
12,21,22,25,26,56,63,35,17,3
12,21,21,22,25,53,65,34,19,3
12,21,19,21,24,48,61,41,21,3
12,18,17,21,23,49,68,40,19,3
12,18,18,20,23,46,69,40,20,3
12,17,18,21,23,43,70,40,21,3
12,16,19,20,22,51,73,42,22,3
12,15,19,22,24,52,74,36,20,3
12,17,18,20,24,50,73,36,20,3
12,15,18,22,24,55,73,36,21,3
13,16,19,20,22,63,69,35,22,3
13,19,20,21,25,55,62,30,24,3
13,21,21,21,24,50,59,28,26,3
13,20,22,23,26,60,61,31,25,3
13,21,23,22,27,62,65,32,26,3
13,20,22,22,28,55,70,32,26,3
13,19,22,23,28,60,85,33,21,3
13,17,22,22,29,64,90,34,20,3
13,18,23,22,27,54,110,33,20,3
13,17,22,22,26,52,111,31,18,3
13,18,23,24,27,65,111,30,17,3
13,18,21,23,25,61,100,30,20,3
13,18,22,22,24,60,98,30,19,3
13,17,21,21,25,61,73,28,20,3
13,17,23,22,27,61,64,32,21,3
13,18,22,20,26,49,69,33,21,3
13,22,23,21,29,61,86,39,21,3
13,21,23,22,31,62,89,41,21,3
13,20,22,21,31,62,90,41,21,3
13,21,22,20,30,65,92,41,20,3
13,20,23,22,34,73,92,41,21,3
13,15,23,20,30,64,83,33,19,3
13,16,23,20,29,61,77,30,18,3
13,17,22,21,28,60,75,28,18,3
13,17,21,22,30,55,68,22,18,3
13,19,20,22,26,43,57,21,18,3
13,19,21,21,26,45,49,23,20,3
13,18,23,23,28,53,61,27,21,3
13,19,24,22,29,59,68,30,22,3
13,18,25,23,29,62,70,32,22,3
13,17,25,23,31,68,82,31,23,3
13,19,25,24,32,73,83,31,21,3
13,20,23,22,30,73,78,31,21,3
13,19,23,23,30,71,68,29,21,3
13,19,22,23,27,68,72,29,20,3
13,19,22,22,27,60,61,29,19,3
13,19,21,23,27,52,66,28,18,3
13,19,22,23,28,44,62,28,20,3
13,20,22,23,27,43,70,28,18,3
13,20,22,23,28,45,64,26,18,3
13,19,23,23,24,49,71,26,18,3
13,19,23,23,23,52,64,26,19,3
13,20,23,24,23,59,76,25,19,3
13,20,23,24,22,58,68,23,18,3
13,20,22,24,25,59,78,23,18,3
13,20,22,25,25,59,76,23,19,3
13,20,22,24,27,61,77,27,19,3
13,17,22,22,25,55,66,28,17,3
13,17,21,21,26,54,72,29,16,3
14,17,21,20,23,55,76,29,19,3
14,17,21,19,23,57,73,30,17,3
14,17,18,20,24,53,74,26,18,3
14,18,17,21,26,53,74,23,18,3
14,17,19,21,26,56,71,21,22,3
14,17,18,22,26,59,66,23,20,3
14,17,20,22,25,54,68,21,20,3
14,17,20,20,24,55,68,22,19,3
14,17,22,22,24,66,70,22,22,3
14,15,21,23,25,64,71,26,19,3
14,17,21,23,26,66,86,25,19,3
14,17,21,23,29,69,89,26,20,3
14,18,23,25,29,68,88,27,19,3
14,18,23,22,29,56,86,27,18,3
14,18,22,22,31,58,86,24,17,3
14,17,22,22,32,51,62,25,19,3
14,16,22,20,30,50,56,26,18,3
14,15,20,21,30,52,58,24,18,3
14,16,19,23,28,53,58,23,17,3
14,17,21,25,26,50,58,22,18,3
14,18,22,24,22,48,55,21,17,3
14,19,23,25,25,52,50,21,17,3
14,21,22,24,25,49,48,24,19,3
14,21,24,25,27,55,54,27,20,3
14,21,22,23,26,61,63,27,19,3
14,23,22,22,26,62,64,27,20,3
14,23,21,21,27,59,73,26,20,3
14,22,24,21,25,62,80,23,20,3
14,22,23,18,25,61,79,23,18,3
14,21,24,18,27,53,68,23,19,3
14,18,23,17,26,56,74,24,18,3
14,18,22,17,25,58,68,24,18,3
14,18,19,18,26,53,60,23,17,3
14,17,19,19,25,54,67,22,18,3
14,15,19,21,26,64,73,25,19,3
14,16,20,22,27,62,71,23,20,3
14,16,21,21,26,60,71,23,19,3
14,18,22,20,27,62,68,23,20,3
14,18,21,20,27,64,68,22,20,3
14,20,22,19,24,58,68,21,21,3
14,20,22,18,24,54,62,22,21,3
14,20,20,19,23,61,64,23,21,3
14,19,21,20,26,62,65,24,21,3
14,20,23,22,27,59,70,25,21,3
14,20,21,21,28,62,70,25,20,3
14,20,21,21,29,64,71,25,18,3
14,20,21,21,29,57,68,26,17,3
14,19,20,21,30,58,77,25,17,3
14,20,20,19,30,54,65,26,16,3
5,695,948,795,926,468,713,246,278,0
5,552,763,627,741,373,564,196,227,0
5,470,632,528,622,318,478,167,187,0
5,342,476,391,461,233,349,122,140,0
5,241,344,256,326,158,238,85,98,0
5,168,236,189,226,117,171,62,68,0
5,140,198,151,187,93,140,50,59,0
5,124,175,136,165,84,125,45,50,0
5,100,150,112,139,71,103,39,43,0
5,87,132,97,123,63,91,33,40,0
5,79,121,90,114,62,87,33,36,0
5,81,122,86,112,60,84,32,36,0
5,75,119,85,113,58,82,32,37,0
5,76,117,81,112,55,78,31,35,0
5,77,116,83,110,52,75,31,33,0
5,77,119,85,107,50,77,32,34,0
5,75,118,87,107,50,75,32,33,0
5,76,117,87,106,49,77,32,33,0
5,75,119,86,106,48,76,31,34,0
5,76,118,83,109,52,79,32,32,0
5,76,118,82,110,51,76,33,34,0
5,75,117,82,113,53,79,31,36,0
5,76,118,84,113,55,79,31,39,0
5,77,117,83,111,53,80,31,38,0
5,77,118,85,113,55,77,33,40,0
5,77,118,85,112,59,77,29,38,0
5,80,122,84,113,56,79,32,38,0
5,79,122,83,113,57,76,34,33,0
5,79,123,86,114,58,76,33,34,0
5,77,121,86,110,55,80,32,33,0
5,78,122,86,112,51,83,33,36,0
5,78,120,86,111,56,80,32,36,0
5,78,121,86,109,57,82,34,40,0
5,77,122,86,110,57,79,34,39,0
6,79,121,85,113,58,78,36,39,0
6,80,121,86,112,60,76,35,36,0
6,79,120,86,111,55,75,35,34,0
6,78,117,85,113,53,73,31,31,0
6,78,119,86,112,54,77,31,30,0
6,75,119,86,111,58,76,29,32,0
6,74,121,84,111,56,76,31,36,0
6,74,124,85,113,57,80,30,37,0
6,75,124,82,109,59,81,33,37,0
6,74,122,80,109,58,78,34,37,0
6,75,122,82,108,55,79,35,39,0
6,74,118,83,107,55,80,33,38,0
6,75,116,85,108,55,78,33,40,0
6,74,118,86,113,53,76,32,40,0
6,73,118,87,114,53,78,31,40,0
6,76,115,88,111,54,78,31,36,0
6,75,116,87,113,54,79,31,35,0
6,76,118,86,112,53,79,30,31,0
6,74,117,87,106,53,79,30,30,0
6,75,122,84,107,54,79,29,30,0
6,70,123,84,109,55,77,30,33,0
6,74,126,85,110,53,76,31,33,0
6,74,126,84,114,54,77,32,36,0
6,77,124,85,118,53,78,31,35,0
6,78,122,88,118,55,79,31,39,0
6,80,120,88,119,56,82,29,37,0
6,77,118,87,119,57,82,31,38,0
6,78,121,88,117,56,81,31,37,0
6,80,124,86,120,58,80,34,37,0
6,81,123,86,119,57,80,34,34,0
6,82,124,86,117,55,76,34,35,0
6,82,123,86,115,58,77,33,33,0
6,81,121,87,114,62,80,32,34,0
6,79,119,89,109,59,79,32,34,0
6,79,122,89,108,58,79,33,34,0
6,75,122,88,107,60,81,34,32,0
6,80,123,86,108,58,82,31,33,0
6,78,122,84,109,55,79,33,34,0
6,77,122,84,109,55,81,32,34,0
6,76,121,82,115,58,79,30,36,0
6,77,118,81,113,54,78,29,39,0
6,71,118,80,112,53,78,29,38,0
6,72,118,84,111,55,76,28,37,0
6,72,116,81,111,54,75,27,36,0
6,72,118,82,108,50,75,28,37,0
6,75,118,82,109,52,75,29,34,0
6,78,119,83,109,51,74,30,35,0
6,76,118,82,108,50,76,34,35,0
6,75,118,83,109,51,74,33,39,0
6,77,117,84,109,55,75,35,37,0
7,72,117,88,106,54,74,36,37,0
7,74,120,86,108,57,76,38,38,0
7,75,118,86,110,55,77,34,36,0
7,77,121,84,111,57,80,37,31,0
7,74,121,83,115,55,80,33,34,0
7,77,123,81,115,60,80,32,35,0
7,74,120,81,113,57,78,30,35,0
7,77,121,84,112,60,76,32,36,0
7,77,123,85,109,57,76,30,37,0
7,79,120,85,106,56,80,30,35,0
7,76,119,84,106,54,79,30,35,0
7,76,118,84,108,55,80,29,34,0
7,72,117,81,108,52,78,28,36,0
7,72,116,79,110,51,75,28,36,0
7,71,115,79,110,55,71,30,36,0
7,72,114,81,110,55,71,29,36,0
7,72,115,82,110,54,72,29,35,0
7,76,115,83,109,52,73,31,33,0
7,75,115,85,110,55,76,31,36,0
7,74,116,84,111,54,76,31,35,0
7,73,115,85,111,53,78,32,36,0
7,74,117,84,111,58,78,32,36,0
7,73,116,83,111,58,80,31,37,0
7,72,117,81,111,58,79,30,33,0
7,72,115,84,110,55,78,30,35,0
7,71,115,82,109,54,75,28,34,0
7,72,111,84,109,52,75,28,34,0
7,72,113,84,108,53,75,28,31,0
7,75,114,84,107,52,75,29,32,0
7,74,117,82,107,55,75,29,31,0
7,75,118,81,107,56,75,31,32,0
7,75,120,82,109,56,78,32,34,0
7,75,123,81,110,53,75,31,37,0
7,73,121,84,110,54,76,32,38,0
7,73,119,85,110,53,75,31,37,0
7,73,117,87,110,53,78,30,36,0
7,71,115,85,110,51,75,30,34,0
7,72,113,88,109,56,76,31,33,0
7,72,117,85,111,53,75,31,31,0
7,71,114,84,108,53,75,31,32,0
7,72,117,81,110,53,74,31,34,0
7,71,119,81,110,53,75,33,33,0
7,68,117,78,109,50,72,32,32,0
7,69,119,77,108,51,74,32,34,0
7,68,116,78,110,50,73,32,35,0
7,68,115,81,108,50,73,31,34,0
7,69,115,80,105,49,73,30,35,0
7,69,115,81,106,51,74,29,37,0
7,70,112,83,109,54,73,28,35,0
7,71,116,82,107,53,75,29,34,0
8,71,114,79,109,54,73,29,32,0
8,74,113,78,109,54,73,29,33,0
8,74,114,77,108,51,74,30,33,0
8,72,117,79,106,51,73,29,33,0
8,74,115,79,108,52,73,29,33,0
8,74,113,81,106,53,75,30,36,0
8,72,115,84,111,53,76,32,35,0
8,72,116,87,110,56,77,32,34,0
8,75,116,84,111,57,76,32,34,0
8,72,116,83,108,56,74,32,34,0
8,74,118,81,109,55,73,29,32,0
8,74,115,81,108,54,74,27,32,0
8,73,113,79,108,51,72,27,32,0
8,71,111,81,109,52,73,30,32,0
8,73,110,82,110,55,73,30,34,0
8,70,113,81,109,54,77,31,36,0
8,67,118,81,109,54,73,31,34,0
8,68,120,81,109,54,75,31,35,0
8,68,122,80,110,52,76,27,35,0
8,69,124,80,109,53,76,27,34,0
8,70,123,84,109,54,73,29,32,0
8,72,119,82,110,54,77,28,35,0
8,75,120,82,110,54,77,31,35,0
8,74,118,84,109,52,76,31,36,0
8,71,119,83,108,49,77,33,36,0
8,70,119,81,109,53,74,32,36,0
8,70,118,82,108,53,72,32,34,0
8,66,116,80,106,53,70,33,35,0
8,66,117,80,109,54,68,32,35,0
8,66,115,79,107,55,67,31,35,0
8,68,113,78,107,54,70,29,32,0
8,68,116,76,106,54,68,30,35,0
8,73,115,78,108,55,69,29,32,0
8,73,116,77,107,56,74,28,34,0
8,75,114,76,107,56,73,28,34,0
8,74,116,78,108,52,73,29,36,0
8,74,115,80,107,54,78,28,34,0
8,73,116,79,107,50,78,25,35,0
8,74,114,81,108,53,78,27,33,0
8,72,117,82,112,55,76,28,33,0
8,72,117,81,110,55,77,27,30,0
8,73,119,79,109,51,73,29,34,0
8,72,121,78,109,53,71,31,32,0
8,70,120,78,108,51,70,32,34,0
8,70,120,79,105,48,73,31,35,0
8,71,119,79,106,48,73,32,35,0
8,68,115,83,107,54,75,32,31,0
8,68,113,83,108,54,75,32,32,0
8,69,113,84,112,53,75,31,30,0
8,70,113,84,113,55,73,33,33,0
9,70,113,83,114,56,73,32,33,0
9,71,114,82,113,55,74,29,34,0
9,72,115,83,110,55,74,29,32,0
9,71,113,80,106,56,74,28,33,0
9,71,109,78,105,53,77,26,30,0
9,69,109,84,104,55,73,26,31,0
9,68,109,80,104,52,70,28,31,0
9,67,112,79,107,50,71,27,33,0
9,69,112,80,108,50,69,29,33,0
9,72,116,78,107,52,66,30,32,0
9,70,116,74,108,49,72,31,34,0
9,71,116,76,107,50,74,30,32,0
9,69,114,78,108,53,74,30,32,0
9,68,113,77,108,52,75,29,33,0
9,64,113,78,110,52,75,27,36,0
9,65,114,81,108,56,75,26,35,0
9,66,115,81,108,57,74,26,35,0
9,68,119,80,108,57,75,26,37,0
9,69,117,85,109,58,76,26,37,0
9,74,117,84,111,61,78,30,34,0
9,74,114,84,113,59,76,31,34,0
9,72,116,81,114,59,74,31,35,0
9,74,113,83,113,59,74,32,33,0
9,74,115,78,110,57,75,32,30,0
9,69,114,82,107,54,73,30,29,0
9,67,116,80,106,55,75,29,29,0
9,66,114,81,104,55,73,28,30,0
9,63,117,79,104,55,76,29,32,0
9,62,115,81,103,56,74,29,34,0
9,63,116,78,106,57,75,32,35,0
9,67,115,80,105,53,75,33,39,0
9,69,116,80,105,52,75,33,37,0
9,69,116,79,108,52,71,32,35,0
9,67,116,78,110,53,73,30,36,0
9,68,116,78,112,53,73,27,36,0
9,66,116,78,115,54,72,26,33,0
9,66,115,80,115,58,73,28,34,0
9,66,113,79,112,56,74,27,35,0
9,67,111,80,107,54,72,31,32,0
9,64,111,80,104,52,73,31,32,0
9,67,109,80,100,54,72,33,34,0
9,65,110,79,101,49,74,31,33,0
9,69,108,79,104,52,73,33,33,0
9,70,111,79,105,55,76,31,33,0
9,71,114,79,105,55,75,31,36,0
9,68,114,79,107,55,77,31,36,0
9,70,115,79,109,54,74,30,37,0
9,67,115,81,108,56,76,28,36,0
9,67,114,80,109,52,73,28,35,0
9,68,112,80,111,51,74,28,37,0
10,73,110,79,111,52,74,28,36,0
10,75,109,79,110,53,76,28,34,0
10,76,112,79,113,53,74,27,35,0
10,76,111,81,112,54,75,26,36,0
10,75,115,78,111,55,73,24,32,0
10,71,116,82,112,54,70,24,35,0
10,68,116,82,110,56,70,24,35,0
10,65,113,82,109,58,71,28,34,0
10,64,113,81,110,58,70,28,35,0
10,65,113,82,112,60,69,28,34,0
10,65,115,82,109,61,71,29,31,0
10,68,114,80,109,59,69,29,33,0
10,70,114,80,107,55,67,29,33,0
10,70,113,77,106,57,66,29,33,0
10,71,110,76,103,60,68,31,32,0
10,72,109,75,102,59,65,33,32,0
10,71,112,78,106,58,67,33,33,0
10,69,110,77,107,58,71,32,33,0
10,69,111,79,106,57,72,33,32,0
10,69,112,79,107,53,75,34,33,0
10,67,111,79,108,54,76,32,33,0
10,67,110,78,104,55,74,31,30,0
10,67,111,80,104,59,72,29,32,0
10,66,110,80,107,61,70,30,32,0
10,65,111,81,107,59,67,27,31,0
10,66,111,82,108,58,69,26,30,0
10,67,111,85,109,60,68,26,31,0
10,71,114,86,109,60,71,28,29,0
10,70,114,83,107,60,74,28,29,0
10,73,115,82,107,62,74,29,30,0
10,72,117,81,107,64,74,29,32,0
10,69,121,77,110,63,75,30,32,0
10,66,117,74,110,61,72,28,34,0
10,65,117,74,111,61,71,29,33,0
10,61,118,75,112,62,73,28,34,0
10,62,116,75,112,60,70,28,34,0
10,67,114,74,111,62,70,28,34,0
10,67,112,77,109,61,67,28,33,0
10,68,113,78,109,61,66,28,33,0
10,71,111,78,108,57,64,29,32,0
10,71,111,77,109,58,64,30,31,0
10,71,112,81,107,54,65,31,31,0
10,72,114,80,107,54,69,33,31,0
10,73,112,79,105,51,68,31,30,0
10,70,111,78,106,53,70,30,32,0
10,71,110,77,104,50,71,29,32,0
10,67,110,74,104,52,69,27,32,0
10,63,107,75,105,57,70,30,30,0
10,61,109,75,105,61,72,29,33,0
11,62,108,77,106,63,70,29,34,0
11,61,110,78,106,66,71,29,34,0
11,64,111,79,106,68,73,31,35,0
11,66,112,80,106,62,69,27,35,0
11,69,112,80,107,59,67,28,37,0
11,68,116,81,107,58,70,28,34,0
11,73,115,79,106,54,72,28,35,0
11,71,117,79,110,55,71,29,33,0
11,70,116,80,110,61,72,29,34,0
11,69,119,78,110,63,74,29,30,0
11,70,115,80,109,62,73,29,29,0
11,67,116,79,111,66,69,30,30,0
11,68,113,78,108,64,68,27,32,0
11,67,113,77,109,61,70,27,30,0
11,67,110,75,108,60,71,29,33,0
11,68,109,72,108,59,69,29,31,0
11,66,109,73,109,55,73,29,30,0
11,64,108,76,111,56,73,32,31,0
11,69,109,77,108,57,70,31,33,0
11,69,111,78,106,56,68,31,32,0
11,67,112,81,107,56,69,35,35,0
11,70,112,81,107,58,67,33,35,0
11,72,115,80,106,59,68,32,33,0
11,67,113,77,106,59,70,31,31,0
11,68,112,80,108,60,70,29,32,0
11,69,112,78,106,61,66,25,30,0
11,69,114,77,104,61,66,25,30,0
11,70,110,76,103,62,65,26,29,0
11,73,110,75,101,57,65,28,31,0
11,70,111,73,101,60,65,28,32,0
11,70,111,76,102,57,69,29,31,0
11,68,108,78,102,55,73,29,31,0
11,64,113,80,104,55,72,29,30,0
11,63,112,80,104,60,72,28,28,0
11,65,113,79,105,55,74,29,26,0
11,62,114,77,106,58,72,28,29,0
11,65,113,76,109,61,67,30,29,0
11,66,110,75,112,60,68,30,29,0
11,66,112,74,114,58,67,29,29,0
11,69,111,74,112,60,66,29,29,0
11,73,111,75,110,59,67,27,28,0
11,71,113,75,109,57,70,25,27,0
11,70,113,75,107,57,71,27,29,0
11,69,113,76,106,58,68,30,31,0
11,66,113,76,107,58,68,31,29,0
11,64,114,75,107,57,67,32,29,0
11,63,113,75,108,57,67,33,29,0
11,64,112,77,108,55,67,30,29,0
11,64,113,78,109,54,69,29,28,0
11,67,112,77,111,54,67,28,30,0
12,63,111,77,111,54,64,29,31,0
12,65,110,74,108,55,66,28,30,0
12,66,110,74,109,57,62,28,29,0
12,65,107,73,107,57,60,25,29,0
12,64,106,70,110,54,63,27,30,0
12,68,108,71,108,56,61,26,32,0
12,67,112,74,107,54,58,29,35,0
12,64,109,74,104,55,62,30,35,0
12,65,109,73,106,54,65,33,36,0
12,64,112,77,99,57,64,34,35,0
12,60,108,77,97,55,68,35,33,0
12,62,108,77,99,56,70,32,29,0
12,65,110,76,100,53,70,31,30,0
12,65,108,74,99,56,68,29,28,0
12,68,108,71,101,54,70,27,28,0
12,70,111,72,104,54,69,27,29,0
12,67,111,72,105,57,66,27,29,0
12,67,111,73,106,58,66,27,29,0
12,69,113,74,107,57,67,27,30,0
12,67,113,75,107,58,70,26,31,0
12,65,114,74,108,58,70,25,30,0
12,65,115,74,108,56,74,27,30,0
12,66,112,72,107,58,71,26,32,0
12,61,110,74,107,56,72,27,34,0
12,62,110,75,108,55,68,27,32,0
12,62,110,75,106,55,66,30,31,0
12,63,109,74,105,56,63,28,29,0
12,61,109,78,103,53,64,30,31,0
12,63,112,76,102,56,61,30,27,0
12,61,110,75,103,56,59,31,28,0
12,61,108,74,101,57,62,29,29,0
12,61,108,74,103,57,63,29,29,0
12,61,107,70,105,54,64,29,27,0
12,61,108,70,107,53,66,30,28,0
12,62,109,71,106,50,67,30,27,0
12,63,111,71,107,48,68,30,28,0
12,64,113,71,106,49,67,30,30,0
12,62,112,69,103,53,67,29,29,0
12,65,109,70,101,49,65,28,30,0
12,64,108,69,98,53,65,27,29,0
12,65,106,69,101,57,64,27,29,0
12,64,105,69,101,55,63,27,27,0
12,63,107,70,101,53,64,26,29,0
12,61,109,69,103,55,64,29,30,0
12,60,108,72,107,54,63,29,33,0
12,62,109,70,106,50,63,28,35,0
12,62,110,72,107,52,65,28,34,0
12,63,109,73,109,54,64,28,33,0
12,64,109,73,108,53,63,25,31,0
12,64,111,73,107,53,63,25,28,0
13,64,110,76,108,55,62,26,24,0
13,63,109,73,107,54,64,27,26,0
13,66,109,72,105,52,64,29,27,0
13,64,108,72,107,50,68,28,28,0
13,66,105,70,105,52,69,27,29,0
13,64,104,67,102,50,68,26,29,0
13,65,104,69,103,50,66,27,29,0
13,62,102,68,103,49,65,27,30,0
13,61,105,69,102,51,62,27,28,0
13,59,106,69,100,52,59,27,29,0
13,58,107,69,105,53,60,29,28,0
13,58,103,71,101,51,61,28,28,0
13,63,104,70,100,55,61,29,29,0
13,64,103,69,99,54,63,28,33,0
13,65,102,69,99,52,63,29,37,0
13,65,107,71,97,54,62,29,40,0
13,63,109,69,101,56,61,28,41,0
13,59,109,72,101,54,59,28,41,0
13,60,111,73,104,53,61,29,38,0
13,63,112,74,105,52,65,30,32,0
13,65,110,71,105,51,67,28,29,0
13,64,110,72,105,51,66,29,26,0
13,64,109,69,105,52,67,29,22,0
13,65,108,68,104,53,66,29,26,0
13,62,109,66,104,53,62,28,26,0
13,62,111,68,105,53,61,30,25,0
13,63,109,67,104,54,64,28,25,0
13,66,109,67,104,51,64,27,27,0
13,62,111,68,104,51,63,27,25,0
13,61,111,71,105,51,63,31,26,0
13,60,109,70,103,51,62,28,29,0
13,59,110,69,102,49,62,27,28,0
13,56,114,70,105,49,61,27,29,0
13,59,110,70,104,49,64,27,28,0
13,59,109,68,103,49,64,24,29,0
13,58,112,69,104,48,67,26,29,0
13,58,109,70,104,48,68,29,30,0
13,57,108,70,102,49,68,29,29,0
13,57,109,71,101,52,66,30,31,0
13,57,106,71,100,53,65,30,29,0
13,58,105,70,101,54,63,29,28,0
13,61,107,70,102,55,59,28,27,0
13,64,106,71,100,54,61,29,28,0
13,63,106,69,101,51,62,27,26,0
13,64,110,69,104,49,63,27,26,0
13,63,109,68,104,47,64,27,28,0
13,60,106,68,103,49,66,26,28,0
13,59,106,66,103,47,64,24,28,0
13,60,105,67,103,50,64,25,29,0
13,61,104,66,102,51,65,25,30,0
14,61,107,66,100,54,62,24,28,0
14,64,108,66,101,51,65,26,28,0
14,62,109,67,102,54,65,26,28,0
14,62,111,66,105,55,66,27,28,0
14,63,110,68,105,54,66,28,27,0
14,61,109,68,110,52,67,28,28,0
14,62,107,72,108,52,64,29,32,0
14,62,110,71,108,47,63,29,30,0
14,63,108,73,104,46,64,28,30,0
14,59,107,72,104,44,60,25,30,0
14,60,108,71,102,45,61,26,29,0
14,58,108,69,102,46,61,24,25,0
14,58,106,70,104,49,61,25,31,0
14,56,107,69,104,50,62,26,32,0
14,61,107,67,105,54,63,27,31,0
14,63,106,69,107,55,62,29,32,0
14,64,108,67,107,56,62,29,33,0
14,67,106,66,104,54,63,27,29,0
14,68,107,66,104,52,61,27,27,0
14,63,108,67,105,48,62,26,28,0
14,61,108,66,101,49,62,26,32,0
14,59,107,67,101,48,63,28,30,0
14,59,106,65,101,49,64,29,30,0
14,57,107,66,102,51,66,28,32,0
14,58,107,67,102,51,66,29,31,0
14,59,107,68,104,50,66,28,28,0
14,60,106,70,101,52,65,27,30,0
14,58,108,71,103,53,66,26,29,0
14,61,108,71,103,50,64,27,27,0
14,64,105,70,103,54,61,30,29,0
14,63,105,69,106,53,62,28,29,0
14,65,106,69,108,51,60,31,26,0
14,65,105,69,107,50,58,30,29,0
14,66,104,69,106,52,58,29,27,0
14,64,106,68,105,50,61,26,25,0
14,63,108,69,105,52,64,25,27,0
14,61,110,69,107,54,68,22,29,0
14,62,110,70,109,55,68,24,29,0
14,61,112,72,109,55,70,24,29,0
14,60,113,72,109,54,69,25,30,0
14,60,110,70,110,51,66,25,29,0
14,62,110,68,107,49,65,26,29,0
14,58,110,66,106,52,62,29,26,0
14,56,108,66,106,52,63,28,29,0
14,60,108,65,107,51,63,29,27,0
14,61,111,67,105,52,63,31,28,0
14,57,109,68,103,52,63,31,28,0
14,61,111,67,104,48,64,28,28,0
14,61,112,68,104,48,61,28,28,0
14,60,111,66,104,51,61,27,30,0
15,61,107,66,104,51,61,26,28,0
15,61,107,66,104,52,59,27,29,0
15,60,104,68,102,54,63,27,30,0
15,62,105,66,101,52,65,29,29,0
15,60,105,67,102,51,64,28,29,0
15,60,106,68,101,50,66,27,29,0
15,63,108,69,104,47,65,26,29,0
15,61,109,70,103,50,64,26,29,0
15,59,109,71,105,50,65,25,30,0
15,59,109,72,107,52,66,24,30,0
15,57,105,71,103,52,66,25,33,0
15,57,108,66,103,52,66,24,31,0
15,60,106,66,105,49,67,24,30,0
15,61,107,66,104,52,64,25,29,0
15,62,108,65,106,50,63,24,30,0
15,62,110,64,110,50,61,27,28,0
15,63,109,68,110,51,65,29,30,0




