6,11,13,28,104,30,13,10,11
6,11,15,28,131,35,34,12,12
6,16,20,34,150,36,62,18,18
6,18,21,36,157,37,66,19,20
6,20,23,38,151,37,68,22,21
6,21,23,35,133,38,74,21,21
6,22,23,39,119,36,68,21,20
6,19,19,36,104,32,46,17,18
6,17,17,35,99,32,41,15,16
6,16,17,33,99,32,38,12,15
6,13,14,29,84,22,26,11,14
6,13,15,29,79,21,29,11,15
6,14,14,30,81,22,27,10,14
6,14,14,29,74,20,28,10,13
6,14,13,29,74,21,28,13,14
6,15,14,27,75,21,26,13,13
6,15,13,19,65,17,18,12,13
6,14,16,19,81,18,16,12,12
6,15,16,26,112,20,22,12,14
6,16,19,48,131,63,138,14,16
7,17,22,65,196,124,235,33,17
7,18,21,69,212,216,252,42,18
7,18,19,71,205,252,286,74,21
7,17,21,70,192,277,291,77,21
7,18,26,68,197,293,396,195,33
7,23,29,57,135,337,418,240,38
7,28,32,56,114,322,426,248,39
7,38,37,60,114,324,437,246,40
7,104,38,69,148,317,501,251,42
7,110,34,61,127,307,501,178,35
7,111,31,61,132,252,468,244,47
7,259,50,69,224,303,493,256,51
7,309,67,71,252,558,532,273,106
7,303,75,75,266,723,564,330,200
7,382,91,77,279,776,552,421,235
7,490,97,80,298,795,684,418,286
7,469,102,83,322,929,763,473,380
7,595,92,107,334,860,877,565,416
7,638,103,115,331,807,873,680,525
7,737,108,129,371,806,920,729,693
7,850,132,178,532,842,928,885,897
7,955,171,225,598,757,967,989,945
7,992,189,244,664,703,935,1166,1105
7,1059,227,290,763,642,991,1247,1182
7,1089,260,311,775,600,1063,1323,1228
7,1157,356,362,832,547,1041,1300,1224
7,1194,382,360,888,534,1056,1269,1340
7,1320,503,495,1005,569,1123,1250,1404
7,1349,525,545,1065,584,1214,1299,1393
7,1431,534,568,1151,617,1230,1222,1405
7,1408,506,533,1089,604,1238,1248,1397
7,1466,516,558,1048,543,1257,1299,1380
7,1417,410,451,943,609,1184,1224,1390
7,1400,412,423,932,650,1162,1130,1379
7,1372,549,433,990,679,1129,1220,1403
7,1346,563,437,1040,719,1139,1273,1383
7,1251,607,416,1027,705,1117,1294,1314
7,1205,684,427,1037,599,1153,1248,1252
7,1137,659,380,982,521,1057,1231,1221
7,1151,547,389,988,490,1005,1203,1158
7,1081,527,386,906,501,967,1103,1097
7,1028,437,352,865,474,871,979,1106
7,916,309,310,787,484,761,957,940
7,910,303,295,723,460,684,855,853
7,634,257,199,451,372,571,699,682
7,528,192,170,400,232,487,546,595
7,404,167,160,359,203,407,450,352
7,295,93,147,345,144,330,336,239
7,191,59,118,269,106,301,250,207
7,172,44,82,255,96,349,159,154
7,141,32,69,239,85,324,129,97
7,122,28,68,238,79,317,92,74
7,193,30,63,236,73,308,83,65
8,223,30,60,229,72,275,68,62
8,234,27,47,173,49,165,58,47
8,233,27,49,187,45,117,85,42
8,238,27,48,189,47,95,87,42
8,187,25,48,185,47,91,90,39
8,263,27,48,197,50,84,104,48
8,276,32,55,180,51,48,99,68
8,282,33,59,187,61,45,77,69
8,285,33,62,218,62,23,73,69
8,280,32,62,220,63,19,69,69
8,174,32,72,221,87,18,63,64
8,253,23,61,234,82,22,88,39
8,262,33,86,300,121,28,133,39
8,295,34,90,289,129,31,140,97
8,313,34,94,296,132,31,140,102
8,322,32,89,289,118,32,206,119
8,229,31,89,271,120,32,249,125
8,252,24,66,245,76,29,238,125
8,242,25,59,240,65,27,314,94
8,426,59,55,237,64,38,383,151
8,523,76,71,263,73,88,437,148
8,540,84,98,340,84,176,583,199
8,596,110,117,403,124,271,730,353
8,696,115,121,446,144,455,854,561
8,774,173,164,613,267,618,955,766
8,864,224,202,705,299,838,1119,956
8,1052,398,242,746,414,960,1162,1087
8,1101,400,286,850,456,1054,1213,1229
8,1203,461,365,1004,556,1056,1228,1261
8,1265,500,359,1054,581,1054,1280,1189
8,1331,538,413,1083,652,962,1307,1183
8,1358,579,433,1133,733,978,1314,1190
8,1479,688,427,1091,765,967,1313,1145
8,1465,690,436,1115,716,996,1289,1161
8,1433,774,473,1075,696,1041,1314,1332
8,1400,754,431,1021,642,1024,1256,1284
8,1358,788,470,1021,505,998,1218,1293
8,1255,744,493,1075,546,1039,1180,1315
8,1231,747,454,965,552,1031,1160,1426
8,1247,708,461,926,555,1021,1124,1314
8,1173,794,462,904,567,1045,1016,1322
8,1155,703,419,869,641,1064,1148,1298
8,1068,651,369,739,533,967,1086,1162
8,950,610,338,644,496,887,1048,884
8,760,501,262,563,440,750,880,767
8,667,307,223,523,385,647,832,625
8,398,156,120,357,150,418,471,371
8,315,140,95,265,119,298,372,331
9,242,106,81,215,102,257,230,260
9,188,98,67,156,85,227,187,187
9,224,73,62,160,89,237,142,140
9,211,55,43,112,172,262,106,104
9,190,41,43,116,191,254,85,83
9,201,35,43,122,204,261,76,73
9,214,31,43,150,207,257,67,68
9,192,24,36,149,206,226,61,79
9,228,27,32,152,136,160,54,85
9,271,28,31,147,111,139,50,104
9,296,30,37,162,96,96,47,105
9,293,31,49,187,99,85,44,107
9,263,30,49,202,92,70,43,90
9,228,27,51,240,91,56,43,79
9,195,24,53,252,91,44,42,50
9,140,21,49,242,81,36,30,38
9,178,19,50,222,74,36,50,38
9,182,18,50,209,75,36,67,41
9,184,18,47,156,57,31,67,41
9,161,18,43,145,53,30,67,39
9,157,19,53,212,62,23,67,40
9,183,28,41,215,60,23,135,47
9,284,43,44,228,62,38,201,105
9,343,46,44,241,63,49,208,112
9,355,49,53,266,67,49,212,117
9,363,49,45,243,62,49,212,118
9,375,48,49,238,63,48,219,122
9,319,37,46,225,60,38,189,79
9,273,34,47,219,59,24,185,73
9,308,35,54,238,77,23,193,76
9,308,36,54,240,73,24,197,80
9,299,35,54,253,68,63,172,88
9,290,36,55,248,68,66,136,89
9,295,36,54,254,69,69,151,89
9,261,32,41,207,42,72,172,82
9,260,30,41,193,41,74,271,84
9,216,29,44,202,49,47,263,62
9,271,28,43,234,54,43,295,84
9,288,30,43,227,55,39,301,88
9,289,30,41,223,62,33,308,91
9,301,30,42,214,67,41,263,90
9,367,33,34,190,66,105,338,152
9,335,34,39,200,80,156,380,158
9,351,37,40,203,85,169,418,186
9,348,40,44,221,84,171,417,192
9,343,40,52,291,87,172,410,191
9,333,47,91,298,109,187,467,273
9,358,49,88,268,101,195,466,334
9,441,63,94,279,105,212,494,407
9,485,68,99,281,109,213,492,414
9,484,70,97,206,106,220,518,424
10,444,63,61,183,80,188,419,363
10,444,61,61,187,76,141,382,307
10,317,43,50,165,65,96,297,173
10,232,32,35,146,53,109,282,145
10,225,31,61,254,57,93,215,114
10,228,32,69,272,65,181,252,103
10,438,64,80,340,114,313,357,197
10,532,115,164,481,170,418,547,382
10,800,285,258,562,218,573,738,522
10,953,317,265,645,332,755,829,766
10,1078,365,320,775,469,852,926,960
10,1221,477,363,831,565,980,1016,1168
10,1262,525,398,1049,679,1106,1055,1247
10,1344,522,393,1111,725,1140,1105,1358
10,1355,535,404,1087,763,1126,1222,1413
10,1380,565,370,1092,778,1127,1245,1403
10,1348,524,399,1121,770,1075,1241,1294
10,1372,480,423,1063,728,996,1193,1296
10,1432,604,417,1014,732,972,1147,1448
10,1487,627,414,1027,697,955,1075,1462
10,1470,646,437,1016,679,987,1052,1413
10,1400,655,411,1033,688,992,1042,1485
10,1431,676,360,979,709,1028,1187,1506
10,1243,595,356,991,709,1008,1269,1330
10,1229,617,395,1032,718,1064,1296,1305
10,1246,653,414,1100,768,1070,1326,1435
10,1319,699,488,1053,772,1105,1363,1403
10,1287,831,517,980,761,1057,1253,1390
10,1270,810,519,1003,775,1083,1175,1404
10,1199,801,520,1034,783,1140,1204,1392
10,1229,791,524,940,695,1112,1174,1369
10,1134,740,434,894,621,1015,1124,1343
10,1070,566,382,852,545,999,1129,1260
10,1084,541,387,794,517,983,1088,1191
10,1127,548,391,754,520,856,1027,1169
10,1132,514,355,729,504,879,1036,1153
10,1191,564,369,749,584,1014,1085,1239
10,1251,594,427,893,712,1087,1111,1375
10,1297,682,430,1028,721,1086,1168,1435
10,1261,661,408,1025,698,1148,1190,1358
10,1259,644,406,1012,681,1196,1144,1310
10,1302,659,404,1003,664,1153,1109,1330
10,1288,688,392,941,617,1137,1205,1265
10,1201,636,367,796,630,1159,1193,1204
10,1207,650,349,694,627,1128,1232,1235
10,1164,712,413,823,642,1052,1295,1267
10,1152,649,436,938,614,1093,1287,1162
10,1166,656,454,951,564,1062,1205,1142
10,1249,661,453,957,551,1081,1175,1183
10,1218,717,476,1002,579,1091,1161,1253
10,1230,726,451,924,624,1075,1185,1186
11,1218,723,457,877,665,1013,1195,1229
11,1161,694,416,808,719,972,1172,1263
11,1204,806,423,797,683,986,1208,1287
11,1195,739,421,851,659,896,1138,1180
11,1178,674,464,885,743,897,1145,1188
11,1275,784,485,891,757,907,1175,1243
11,1337,796,515,969,734,1034,1148,1239
11,1282,702,522,953,745,943,1127,1246
11,1223,681,502,866,736,997,1096,1254
11,1119,641,447,830,640,1103,1094,1168
11,861,489,384,745,558,1050,990,1049
11,729,447,300,581,456,912,943,919
11,547,314,255,535,391,872,833,701
11,581,301,248,549,354,826,821,645
11,551,271,192,458,236,573,593,656
11,480,232,156,403,193,517,521,484
11,394,147,137,378,186,499,478,405
11,328,107,130,362,176,519,442,363
11,209,73,84,215,95,431,262,252
11,179,67,48,137,77,492,208,175
11,126,59,60,201,71,481,179,148
11,105,51,90,264,99,442,141,130
11,114,42,87,266,102,374,103,100
11,166,43,88,267,104,301,87,81
11,178,46,91,278,106,131,84,72
11,190,49,103,374,104,66,113,74
11,187,40,79,339,71,59,127,69
11,263,42,82,345,63,44,129,70
11,236,37,81,353,55,30,120,58
11,240,34,78,351,50,28,144,59
11,238,26,49,232,53,22,118,54
11,234,28,70,348,62,18,97,48
11,127,22,67,349,65,18,95,39
11,129,22,66,357,69,20,98,42
11,169,21,67,356,72,21,100,44
11,196,47,130,401,168,23,145,63
11,200,46,124,312,172,25,150,62
11,203,49,131,308,184,24,156,64
11,198,50,132,297,185,26,208,62
11,147,50,135,310,189,31,201,59
11,159,31,81,218,113,31,186,39
11,170,31,75,242,104,32,187,40
11,179,27,65,254,80,33,198,51
11,211,26,62,243,70,32,160,72
11,307,39,71,328,62,27,163,119
11,296,36,62,330,59,26,156,124
11,288,36,61,328,66,22,158,124
11,287,36,57,319,66,20,145,119
11,274,37,57,321,71,19,125,112
11,162,25,47,224,74,18,112,63
11,220,32,50,210,74,28,125,66
11,228,34,50,240,75,34,132,71
12,222,33,51,239,73,37,130,76
12,216,33,51,239,70,37,128,73
12,214,32,42,226,65,37,120,70
12,150,22,38,238,76,32,110,58
12,146,17,31,178,73,28,118,54
12,189,21,30,213,84,24,139,65
12,184,23,36,210,87,24,144,63
12,185,23,36,208,86,22,145,62
12,160,23,43,204,74,22,131,61
12,149,23,43,189,67,20,107,57
12,78,18,41,137,54,19,67,32
12,106,14,37,134,51,19,55,28
12,107,17,42,182,49,21,78,34
12,105,18,38,186,49,20,86,46
12,104,17,37,190,52,20,85,46
12,102,20,46,204,54,21,88,47
12,89,20,45,202,54,21,86,47
12,141,18,41,168,56,20,76,46
12,145,18,41,220,53,19,85,32
12,148,21,46,225,59,17,95,31
12,148,18,38,219,62,16,94,28
12,166,22,47,308,68,20,107,41
12,139,25,48,311,69,23,109,45
12,217,30,46,276,74,24,185,69
12,254,42,56,323,80,42,256,131
12,304,54,68,384,98,78,336,188
12,464,75,82,366,107,144,591,439
12,609,76,98,408,136,331,767,700
12,795,143,145,529,161,582,892,882
12,1004,247,178,594,193,779,1038,1059
12,1166,322,212,680,292,902,1124,1222
12,1318,431,311,793,436,1001,1208,1373
12,1424,469,345,917,529,1055,1231,1348
12,1431,500,367,920,605,1060,1254,1348
12,1411,487,388,923,642,1004,1311,1323
12,1502,669,441,936,639,974,1349,1436
12,1473,620,398,870,614,1030,1324,1328
12,1465,692,429,839,618,1034,1323,1377
12,1434,688,458,929,611,1077,1303,1419
12,1427,702,447,940,580,1082,1279,1409
12,1312,631,427,1009,585,1073,1189,1312
12,1301,738,438,1044,578,1019,1087,1419
12,1217,685,387,1016,510,1016,1086,1383
12,1197,690,344,911,474,974,1160,1372
12,1118,720,339,891,499,1034,1132,1347
12,1173,667,348,878,476,1046,1176,1221
12,1192,575,384,936,554,1042,1179,1126
12,1167,549,417,949,667,1030,1238,1105
12,1184,568,492,1026,812,1025,1250,1136
13,1232,542,535,1066,868,1007,1289,1124
13,1175,470,518,993,921,1053,1271,1141
13,1018,436,490,960,861,1090,1294,1162
13,1082,554,482,992,807,1124,1169,1128
13,1190,579,464,1070,697,1169,1073,1192
13,1211,663,501,1067,651,1214,1019,1230
13,1176,686,496,1008,596,1165,1062,1330
13,1282,717,497,967,635,1089,1127,1371
13,1235,671,497,926,641,1046,1181,1393
13,1149,622,466,863,632,997,1223,1302
13,1270,638,416,861,632,880,1254,1356
13,1290,669,409,922,669,957,1226,1325
13,1198,685,405,934,667,1045,1168,1275
13,1224,675,404,969,633,1069,1185,1284
13,1286,753,394,883,588,1121,1205,1290
13,1158,669,409,905,607,1114,1147,1267
13,1072,661,448,996,611,1111,1186,1284
13,1090,639,437,953,570,1062,1230,1243
13,1117,618,465,973,699,1057,1202,1220
13,1096,509,465,965,735,975,1197,1199
13,1087,485,416,903,671,1051,1212,1152
13,1108,478,358,773,624,1010,1216,1023
13,1058,435,346,755,603,951,1166,918
13,924,407,260,612,407,865,1097,867
13,723,385,188,519,288,783,957,692
13,533,351,128,421,272,629,791,520
13,424,245,96,310,161,479,588,456
13,358,209,61,270,119,456,390,413
13,320,176,51,123,97,448,290,311
13,270,153,44,98,77,432,159,241
13,236,93,48,175,63,418,130,193
13,128,69,42,192,54,407,79,125
13,146,50,49,226,67,360,69,75
13,142,41,50,234,70,306,53,62
13,142,39,60,271,73,238,42,60
13,155,28,53,223,75,93,51,74
13,161,27,53,217,73,49,47,74
13,194,31,56,224,66,36,60,98
13,299,38,57,221,63,32,79,116
13,308,42,50,188,64,30,81,120
13,305,42,51,195,60,27,75,109
13,306,40,52,202,60,26,76,105
13,274,36,40,167,59,23,72,81
13,176,28,39,169,66,20,50,69
13,169,20,38,208,64,21,54,62
13,171,23,42,263,70,22,66,59
13,206,27,61,322,88,23,142,65
13,198,26,66,329,87,21,153,66
14,180,26,68,334,82,20,153,44
14,166,26,67,322,81,21,153,42
14,161,24,65,283,80,20,151,41
14,175,25,65,280,88,25,147,64
14,182,25,70,289,93,27,160,65
14,180,24,70,282,94,28,164,65
14,180,23,68,265,94,28,168,64
14,179,24,66,251,87,27,167,64
14,111,21,55,237,73,20,125,34
14,96,21,47,265,66,17,89,28
14,87,20,45,273,65,16,80,29
14,170,22,75,370,86,25,74,44
14,176,22,76,383,86,27,74,48
14,176,18,75,352,70,27,55,45
14,178,17,71,319,67,27,52,45
14,187,17,70,317,67,27,58,45
14,154,17,50,268,46,19,61,30
14,136,16,49,276,49,18,59,22
14,133,17,48,277,49,17,56,27
14,129,17,47,272,52,15,54,27
14,113,18,51,291,54,17,46,25
14,47,17,41,236,46,15,21,27
14,36,23,56,232,64,17,20,28
14,97,23,54,209,65,16,22,23
14,102,26,55,205,64,16,22,22
14,103,26,53,202,62,17,23,23
14,104,26,53,212,66,17,23,21
14,126,20,34,187,47,15,22,19
14,94,21,33,197,49,16,19,17
14,90,18,30,192,46,16,18,16
14,87,17,29,173,49,15,19,15
14,85,16,29,140,46,14,24,17
14,50,16,30,138,45,16,22,17
14,34,14,32,142,44,16,21,16
14,29,13,32,160,45,16,22,17
14,28,11,30,139,45,16,20,19
14,27,11,32,200,53,16,15,18
14,18,12,33,200,52,14,16,18
14,16,13,35,217,60,15,19,19
14,19,13,36,214,57,15,18,19
14,24,13,36,213,55,14,19,17
14,26,15,34,163,53,15,18,16
14,27,16,34,191,60,17,17,18
14,71,15,27,161,52,16,13,16
14,76,18,31,147,70,16,15,16
14,76,19,32,164,73,15,15,18
14,79,19,30,187,70,15,16,21
14,84,19,30,166,64,13,18,20
14,54,19,29,163,64,13,18,22
14,87,19,26,180,48,13,17,23
15,89,18,26,199,49,13,17,24
15,87,20,35,227,47,13,21,21
15,84,19,33,225,46,13,22,20
15,84,19,42,241,63,13,36,22
15,42,22,47,236,68,13,39,22
15,38,23,47,206,66,16,41,20
15,35,21,40,138,64,15,39,20
15,30,24,50,208,90,18,39,20
15,62,25,64,261,82,18,47,27
15,148,24,68,308,82,20,122,40
15,183,24,69,317,123,25,171,47
15,221,25,72,329,128,31,175,49
15,255,48,102,439,569,112,264,161
15,325,62,114,450,798,202,447,227
15,546,118,147,437,914,278,676,412
15,803,281,190,598,1012,462,837,700
15,1078,390,198,715,1050,712,1035,981
15,1212,421,271,702,928,829,1143,1107
15,1300,458,327,803,833,938,1193,1214
15,1355,494,414,950,851,1053,1193,1259
15,1466,484,451,1005,827,1136,1184,1334
15,1385,551,501,984,800,1155,1114,1280
15,1348,591,510,1050,787,1130,1114,1222
15,1378,628,482,1048,771,1102,1178,1132
15,1345,631,455,1043,695,1043,1154,1113
15,1183,616,491,1021,690,972,1220,1071
15,1226,618,463,1054,755,926,1231,1166
15,1306,641,482,1117,855,941,1223,1271
15,1334,624,502,1141,822,949,1170,1435
15,1283,662,478,1134,819,1058,1184,1462
15,1293,662,418,1104,775,1091,1199,1439
15,1239,592,405,1077,753,1017,1203,1349
15,1148,601,414,1055,638,1002,1152,1268
15,1093,570,407,989,641,1095,1100,1136
15,1153,556,462,948,621,1002,1153,1125
15,1186,581,511,956,665,1083,1085,1205
15,1233,563,512,975,644,1142,1186,1184
15,1264,490,452,905,699,1221,1278,1173
15,1215,575,461,941,714,1142,1284,1262
15,1218,621,454,1038,721,1177,1220,1218
15,1217,604,449,1103,692,1086,1153,1058
15,1107,618,479,1149,779,1079,1105,1066
15,1133,616,487,1120,762,1074,1041,1078
15,1186,623,492,1106,783,1047,1018,998
15,1233,598,506,1058,774,998,1169,1172
15,1191,608,487,1118,810,1032,1275,1205
15,1265,591,524,1152,811,1113,1258,1307
15,1229,591,515,1140,811,1053,1313,1298
15,1173,569,562,1308,819,1151,1340,1334
15,1146,655,606,1319,855,1151,1223,1190
15,1161,672,600,1304,868,1188,1175,1254
15,1218,719,561,1224,781,1070,1188,1323
16,1155,731,605,1251,806,1054,1132,1350
16,1119,707,597,1162,764,949,1225,1280
16,1059,566,509,1146,717,903,1230,1267
16,995,544,478,987,611,828,1213,1179
16,783,470,491,988,646,869,1161,890
16,874,535,565,1074,733,907,1134,812
16,907,578,515,978,722,1039,1055,832
16,1018,663,519,942,713,1122,1001,1055
16,1034,685,546,1022,733,1096,1072,1087
16,1094,715,554,1043,803,1166,1072,1161
16,1089,648,416,934,682,1197,1163,1171
16,1098,615,421,928,681,1139,1209,1147
16,1062,593,411,914,681,1128,1283,1002
16,1039,539,418,907,696,1206,1261,968
16,1144,501,384,887,596,1181,1265,984
16,1209,708,426,920,627,1162,1279,1079
16,1217,678,415,943,700,1120,1301,1120
16,1195,672,471,913,738,1123,1241,1162
16,1316,758,437,848,724,1099,1218,1197
16,1235,796,485,977,722,1028,1210,1152
16,1190,644,473,965,677,996,1151,1154
16,1199,752,520,1024,630,1109,1173,1180
16,1145,708,483,1081,626,1082,1190,1148
16,991,705,508,1145,688,1034,1184,1102
16,966,676,499,1071,753,1077,1149,1197
16,912,668,525,1105,827,1126,1279,1217
16,940,604,480,1063,853,1032,1213,1176
16,966,608,492,1085,819,1060,1284,1120
16,1023,534,529,1061,850,1041,1286,1115
16,1107,590,561,1090,820,1030,1337,1070
16,1190,655,531,1066,790,1004,1220,1047
16,1222,694,594,1158,784,1023,1266,1131
16,1293,709,581,1136,831,1074,1146,1177
16,1473,903,570,1173,779,1162,1155,1323
16,1386,889,526,1198,778,1133,1142,1249
16,1373,901,534,1180,752,1129,1178,1304
16,1342,894,507,1100,728,1095,1110,1276
16,1354,906,577,1130,743,1098,1252,1362
16,1135,698,563,1059,706,1053,1331,1263
16,1225,727,537,919,654,1042,1340,1346
16,1134,668,588,947,692,1007,1291,1235
16,1112,595,587,1067,688,1034,1263,1205
16,1055,607,557,1033,704,952,1255,1052
16,1112,645,565,1048,706,963,1195,979
16,1211,586,587,1164,748,1006,1148,1102
16,1296,555,535,1167,691,1006,1207,1090
16,1281,692,501,1037,681,1004,1227,1068
16,1247,676,415,955,583,1021,1151,1188
16,1227,624,372,978,586,915,1163,1233
17,1069,628,368,925,576,948,1241,1160
17,1043,730,451,977,567,964,1140,1180
17,1041,683,447,1029,559,934,1151,1171
17,1107,698,469,1093,641,871,1159,1125
17,1106,762,486,1071,607,1112,1037,1039
17,1081,774,496,1074,579,1119,913,860
17,1137,693,397,1006,623,1128,952,862
17,1178,665,390,918,637,1148,932,830
17,1149,643,406,858,604,1153,937,959
17,1130,611,380,839,634,974,1144,1009
17,1163,595,360,790,603,909,1255,1002
17,1040,593,396,812,623,1015,1294,1017
17,961,613,423,831,606,991,1288,1059
17,933,635,408,809,537,1037,1242,970
17,942,590,410,798,515,1080,1148,992
17,943,567,402,803,554,1149,1104,1055
17,982,577,375,761,521,1037,1105,1055
17,1126,523,443,825,544,1076,1083,1085
17,1106,481,434,870,571,1055,1125,1051
17,1051,562,449,874,660,1046,1122,1006
17,1097,680,462,887,729,1030,1203,1102
17,1175,717,520,958,738,1030,1240,1114
17,1121,683,424,836,722,986,1287,1069
17,1186,684,466,826,698,999,1249,1038
17,1290,664,504,892,640,1026,1248,1121
17,1250,579,490,883,592,1040,1116,1144
17,1175,546,407,774,553,1104,1057,1113
17,1170,602,443,801,566,1230,1025,1228
17,1163,598,385,750,583,1232,1069,1233
17,1070,558,294,638,545,1175,1015,1159
17,1118,701,339,656,520,1096,1099,1030
17,1082,705,341,683,525,1115,1072,985
17,1057,737,312,729,542,976,1064,846
17,986,722,331,800,601,997,1049,898
17,969,751,346,867,636,990,1078,896
17,915,627,293,817,665,1083,1105,879
17,1026,603,357,936,726,1030,1160,1068
17,990,579,359,934,689,1072,1134,1077
17,987,591,362,916,666,1120,1128,1096
17,986,541,391,930,671,1135,1159,1162
17,993,498,369,897,618,1048,1109,1145
17,897,489,335,788,513,1059,1128,1079
17,916,420,342,843,516,1004,1224,1107
17,1067,591,330,827,503,893,1243,1010
17,1049,600,264,708,454,861,1172,928
17,1040,612,286,837,446,948,1202,982
17,1037,654,257,783,439,919,1097,902
17,1013,658,245,732,513,972,1031,822
17,846,545,250,749,491,1048,1101,810
17,924,575,298,816,545,1069,1116,913
18,867,570,334,782,638,1004,1003,851
18,846,555,329,787,640,972,1052,852
18,897,563,341,766,576,1063,1021,918
18,860,550,335,785,602,1113,1012,1063
18,875,577,309,750,554,1114,1021,1068
18,1027,582,266,681,451,1181,1231,1246
18,1100,537,266,661,486,1239,1217,1340
18,1124,615,277,718,502,1199,1250,1293
18,1136,579,303,778,447,1127,1263,1178
18,1163,529,290,790,481,1272,1332,1135
18,1065,557,281,748,496,1252,1118,1072
18,938,537,277,749,466,1198,1157,920
18,825,411,243,690,419,1135,1132,878
18,772,412,194,517,395,1068,999,870
18,644,399,178,430,326,805,808,784
18,552,339,150,397,226,651,791,533
18,555,331,138,359,171,539,574,423
18,528,292,85,187,142,398,417,402
18,500,249,59,150,119,337,284,293
18,346,207,47,132,85,306,249,231
18,251,94,36,123,76,353,198,170
18,209,80,34,106,62,376,187,137
18,129,89,26,91,68,343,114,107
18,107,85,24,84,62,309,88,64
18,68,77,22,71,55,294,71,50
18,56,71,21,57,55,180,58,40
18,51,71,22,49,55,65,50,32
18,36,50,19,26,34,55,31,25
18,33,45,19,24,33,53,26,21
18,25,40,19,24,34,46,24,20
18,22,38,19,24,36,42,23,19
18,24,41,20,29,56,51,21,19
18,38,42,20,35,163,50,30,25
18,41,48,19,39,177,77,33,29
18,41,50,19,39,182,84,34,29
18,43,50,20,43,186,91,34,30
18,39,47,18,44,187,132,35,29
18,23,42,18,39,121,143,27,25
18,19,29,18,43,128,133,22,18
18,21,24,19,57,221,138,19,17
18,30,33,29,68,403,179,24,20
18,40,104,56,142,593,214,44,148
18,45,108,62,158,625,225,58,161
18,46,114,63,166,724,232,61,164
18,57,133,72,241,845,244,73,192
18,86,159,131,380,945,524,114,253
18,98,156,161,455,1063,672,189,361
18,113,174,206,576,1292,795,236,400
19,119,180,218,663,1325,824,251,448
19,126,171,224,684,1357,889,273,524
19,131,160,227,755,1397,865,320,539
19,146,154,217,799,1331,850,304,524
19,150,148,195,777,1255,866,321,580
19,164,157,209,773,1293,1001,338,592
19,177,166,224,759,1277,1037,364,543
19,187,158,210,655,1209,997,324,515
19,182,146,214,597,1203,951,330,512
19,190,141,214,568,1158,890,305,437
19,185,154,193,527,1162,798,294,398
19,189,184,207,567,1143,787,288,435
19,192,211,226,627,1191,832,296,471
19,216,224,219,628,1169,870,300,504
19,213,246,223,654,1149,906,289,540
19,212,238,224,654,1037,963,301,533
19,195,225,230,681,1059,906,307,497
19,184,217,245,764,1034,867,340,505
19,159,210,244,735,1058,832,326,430
19,169,219,265,713,1016,788,321,459
19,173,209,262,685,1032,677,304,465
19,180,201,246,640,971,702,260,465
19,165,186,221,475,889,718,208,449
19,199,191,250,554,953,731,228,457
19,184,161,244,562,1028,718,238,422
19,181,165,260,652,1129,780,253,430
19,186,171,260,668,1189,849,289,442
19,188,181,256,656,1267,819,288,422
19,138,167,234,587,1210,830,288,430
19,131,152,204,568,1191,894,299,391
19,129,160,220,546,1214,833,304,469
19,116,152,228,531,1179,857,268,445
19,112,138,225,512,1089,855,264,427
19,101,130,214,509,1053,789,232,377
19,103,125,208,480,945,668,195,345
19,92,106,192,454,806,643,148,162
19,96,91,166,401,744,507,139,254
19,91,78,146,393,672,431,115,252
19,90,82,165,404,594,429,98,247
19,80,80,169,421,596,425,89,247
19,75,69,146,355,472,370,71,245
19,42,54,134,339,342,199,47,109
19,30,48,130,330,303,181,32,82
19,27,36,95,275,255,140,25,66
19,23,36,73,205,244,112,24,53
19,20,33,55,148,226,97,22,42
19,19,26,47,120,228,75,21,29
19,18,25,43,119,235,70,20,26
19,17,20,35,112,237,49,22,26
19,15,17,32,108,158,43,20,24
19,13,16,31,112,140,45,17,22
19,12,24,40,132,152,52,22,20
19,12,24,40,135,147,53,25,20
20,12,25,42,150,200,47,25,17
20,11,27,44,153,207,45,26,17
20,11,26,39,118,203,46,26,16
20,12,21,30,101,180,40,21,16
20,11,22,31,109,177,46,19,17
20,11,22,29,89,101,46,21,15
20,13,21,33,117,99,48,20,15
20,19,30,58,151,302,128,32,16
20,43,50,93,249,587,249,74,231
20,119,161,198,392,732,405,162,319
20,222,210,258,680,1117,702,243,501
20,245,225,287,803,1269,779,315,601
20,273,250,308,925,1410,906,346,718
20,278,257,322,948,1451,1007,425,892
20,265,216,276,910,1457,1037,415,902
20,197,187,255,765,1270,931,393,869
20,201,196,252,703,1301,957,366,888
20,183,186,280,620,1181,933,346,867
20,179,184,285,617,1149,860,262,707
20,181,200,299,704,1149,820,261,791
20,213,224,317,726,1143,830,265,791
20,200,233,311,685,1057,798,265,724
20,189,233,291,663,1080,747,280,690
20,200,232,285,671,1046,802,303,658
20,196,236,280,586,1106,806,306,616
20,153,203,258,577,1141,789,290,628
20,146,181,261,607,1132,801,279,648
20,157,177,252,634,1121,761,270,638
20,153,182,238,581,1042,681,268,649
20,155,157,237,582,934,635,274,614
20,159,165,246,558,867,652,276,546
20,149,166,236,540,845,644,268,517
20,129,171,259,531,916,701,284,482
20,147,176,268,618,1042,726,283,493
20,144,178,266,633,1053,739,284,438
20,157,185,275,717,1060,681,289,477
20,155,178,265,701,1055,636,283,471
20,161,156,222,663,958,589,262,510
20,136,150,209,584,850,531,224,537
20,146,149,231,568,893,605,209,532
20,130,139,208,536,937,620,220,531
20,135,150,227,567,892,707,228,530
20,134,167,251,590,917,750,230,538
20,129,158,260,583,933,734,277,501
20,122,153,276,628,927,695,301,568
20,126,146,261,543,881,690,304,556
20,132,140,250,527,901,612,313,598
20,139,138,280,557,984,572,329,615
20,140,178,279,618,1116,714,296,608
21,143,211,251,581,1144,666,303,575
21,158,223,264,615,1216,691,306,587
21,155,217,272,634,1256,710,291,664
21,143,212,227,567,1226,711,280,609
21,151,182,214,524,1119,678,287,632
21,150,161,208,503,1094,738,258,665
21,137,140,192,478,992,729,227,653
21,142,133,170,422,893,696,234,566
21,148,160,176,419,843,671,231,607
21,147,170,213,474,871,680,236,577
21,136,189,229,508,868,692,229,520
21,142,200,232,460,877,670,242,552
21,157,227,244,493,903,669,237,521
21,173,232,256,535,1003,749,241,582
21,163,228,228,467,929,729,213,556
21,163,205,198,409,833,673,190,533
21,148,194,184,431,857,661,170,468
21,118,160,168,381,821,628,151,433
21,72,109,115,320,601,492,105,241
21,64,85,98,282,557,316,82,219
21,45,54,85,285,522,237,74,154
21,34,48,78,243,328,143,34,100
21,26,41,59,207,263,106,30,79
21,25,35,50,132,184,103,32,53
21,21,26,40,117,135,86,31,44
21,20,23,50,112,105,75,31,33
21,16,18,48,105,71,62,31,26
21,16,18,47,95,64,55,31,24
21,15,17,46,84,57,21,19,17
21,15,17,46,78,53,21,17,19
21,14,15,27,53,36,21,16,18
21,13,16,40,118,25,23,16,15
21,12,17,40,126,24,24,14,14
21,11,16,47,149,26,26,15,14
21,11,16,58,183,51,26,15,11
21,13,22,84,240,76,24,15,13
21,14,23,79,225,80,21,14,13
21,14,22,79,221,82,20,14,13
21,16,27,89,261,83,19,12,16
21,17,30,103,324,93,30,13,19
21,17,35,106,328,81,105,15,19
21,18,38,107,330,227,178,26,22
21,45,75,144,433,624,529,85,32
21,96,122,215,590,963,723,167,124
21,138,157,247,619,1103,798,232,245
21,211,200,287,700,1249,879,330,459
21,240,221,328,795,1412,1032,371,520
21,277,272,405,871,1443,998,453,612
21,278,276,410,894,1368,1015,456,628
21,276,280,403,886,1404,1017,437,619
22,241,275,392,857,1412,1138,413,551
22,224,269,368,818,1311,1062,392,530
22,195,229,298,739,1322,1078,334,445
22,185,211,251,594,1295,982,307,453
22,172,193,232,578,1217,1009,327,479
22,163,169,224,551,1174,848,291,454
22,183,213,214,503,1134,801,317,454
22,171,208,192,488,1015,736,295,445
22,170,218,194,486,966,720,310,465
22,170,230,209,508,1017,659,312,516
22,161,250,188,499,971,658,305,484
22,130,232,189,513,971,653,258,456
22,199,286,224,561,1009,759,307,484
22,200,278,219,558,1046,766,318,510
22,202,265,210,511,1005,761,306,423
22,220,249,218,511,1031,740,345,538
22,224,256,241,538,1117,801,355,549
22,162,216,201,429,1078,684,293,527
22,159,228,205,465,1093,720,265,459
22,153,232,206,470,1083,716,243,440
22,132,249,221,467,1110,706,179,329
22,122,224,199,407,1048,614,165,338
22,149,245,265,453,1050,618,214,391
22,150,249,264,408,1026,565,210,398
22,150,248,258,396,1047,619,237,421
22,148,248,241,362,978,643,238,434
22,148,281,273,376,986,722,241,411
22,123,255,216,368,1041,712,200,462
22,119,237,212,371,1012,705,197,489
22,121,239,210,371,984,745,175,489
22,119,232,206,372,1017,737,179,441
22,114,182,168,360,1014,691,181,460
22,113,157,151,311,968,692,196,409
22,114,215,186,321,1018,697,206,364
22,104,222,187,353,1046,630,204,340
22,95,201,180,363,996,573,187,348
22,101,204,175,381,1016,598,198,354
22,92,198,167,374,944,663,177,306
22,74,127,114,343,808,634,157,304
22,67,93,107,297,679,561,139,283
22,68,89,103,287,598,560,134,267
22,52,66,85,228,397,462,88,200
22,35,55,81,210,306,232,67,130
22,32,45,75,200,270,218,54,64
22,30,32,71,176,179,191,53,61
22,24,23,58,118,158,158,47,42
22,21,20,41,97,119,148,45,36
22,17,18,31,63,81,137,43,30
22,16,18,27,51,69,103,38,28
22,13,17,23,41,48,54,19,19
23,14,15,19,31,41,43,19,16
23,14,14,17,26,33,40,18,15
23,11,13,15,21,25,35,17,13
23,13,12,13,18,23,33,14,11
23,13,13,15,25,19,27,16,11
23,13,14,19,46,25,37,15,12
23,14,14,21,46,25,36,14,13
23,13,15,22,55,32,49,16,12
23,14,14,22,58,33,49,15,15
23,13,18,44,152,34,49,13,15
23,15,20,53,175,45,40,15,15
23,14,19,54,180,49,52,18,14
23,15,21,56,182,66,202,26,16
23,14,23,59,190,338,213,33,16
23,15,20,44,132,361,223,35,18
23,14,22,55,206,371,230,35,18
23,18,28,71,224,394,243,37,20
23,17,28,72,230,432,216,33,20
23,18,29,70,225,302,273,34,19
23,20,32,84,232,282,281,34,18
23,22,33,79,148,296,287,40,19
23,23,39,72,137,518,293,45,20
23,28,48,79,158,663,278,60,32
23,33,54,104,190,809,265,81,46
23,37,56,106,193,861,311,87,50
23,44,67,113,245,954,486,93,83
23,55,73,123,272,1017,547,108,221
23,79,80,139,369,1064,614,144,295
23,96,87,151,447,1083,657,167,334
23,112,93,163,504,1169,831,219,395
23,148,99,174,533,1203,840,265,570
23,164,124,211,641,1231,935,301,548
23,173,122,206,602,1222,996,304,625
23,169,120,195,588,1199,1022,325,688
23,165,120,187,573,1137,910,302,676
23,138,116,178,626,1168,863,279,577
23,129,108,152,544,1117,793,257,590
23,114,131,171,590,1185,718,253,508
23,113,136,172,573,1187,652,212,409
23,119,138,170,550,1174,680,251,454
23,116,139,169,510,1103,719,261,467
23,113,123,155,489,1026,673,248,501
23,115,95,125,479,866,635,240,573
23,115,165,118,450,819,645,241,593
23,116,167,115,443,833,554,205,580
23,113,208,106,353,752,432,196,608
23,103,211,89,327,740,372,182,562
23,88,214,85,221,690,377,166,453
24,80,164,71,210,599,310,151,417
24,62,200,58,196,496,311,124,370
24,62,161,55,187,476,297,61,242
24,58,157,48,156,452,283,62,223
24,55,153,47,136,419,188,64,216
24,55,147,42,112,410,176,59,195
24,43,80,40,105,396,153,51,157
24,30,60,39,102,374,149,44,98
24,28,51,45,97,272,135,36,108
24,21,45,39,82,208,101,35,127
24,22,38,39,79,210,83,32,147
24,23,31,39,65,198,73,30,147
24,22,28,36,61,187,62,30,149
24,21,21,28,54,183,51,28,134
24,22,22,33,51,207,62,24,100
24,19,21,32,49,189,66,24,62
24,17,21,29,56,209,72,24,48
24,16,20,32,63,213,105,25,40
24,17,20,28,75,241,105,23,36
24,15,18,21,83,223,100,22,30
24,17,16,22,82,217,97,18,21
24,18,18,29,77,183,109,19,18
24,19,17,32,80,219,91,24,20
24,20,18,36,78,239,105,27,17
24,22,19,36,71,244,132,30,22
24,38,29,44,103,308,167,39,59
24,41,30,45,147,331,243,48,149
24,48,34,49,183,433,303,59,178
24,56,42,55,196,454,391,76,186
24,57,56,75,261,587,498,87,201
24,64,60,80,262,613,653,109,281
24,67,65,90,262,651,724,125,284
24,73,71,93,273,739,804,150,304
24,73,70,90,325,815,786,154,326
24,79,68,104,404,820,778,166,351
24,81,65,105,442,893,692,159,343
24,93,75,117,483,965,683,175,332
24,95,73,120,487,966,613,174,323
24,96,74,123,461,967,633,172,308
24,92,67,102,366,914,657,169,286
24,81,65,100,323,877,666,182,236
24,73,52,79,249,806,654,166,299
24,62,48,72,239,803,651,165,313
24,59,42,70,224,721,647,166,324
24,84,58,75,214,762,571,156,376
24,83,59,72,199,721,515,139,367
24,79,56,75,221,769,447,125,312
24,101,64,80,224,829,438,105,294
24,104,68,94,243,867,408,96,292
24,88,56,91,245,839,455,116,316
24,95,54,96,255,852,486,116,333
24,94,53,90,243,787,453,119,325
25,68,50,84,208,623,401,113,313
25,61,242,65,178,563,362,114,330
25,58,249,59,188,521,258,88,229
25,43,262,55,226,516,158,76,205
25,39,269,51,208,483,132,66,203
25,38,275,48,204,413,94,56,195
25,35,149,45,202,390,100,43,170
25,29,138,42,178,365,93,36,163
25,26,115,31,100,261,103,31,154
25,25,96,30,86,256,105,31,147
25,24,72,25,78,221,97,34,175
25,21,47,27,67,195,85,26,124
25,20,42,28,65,199,83,26,121
25,19,28,28,53,153,67,26,119
25,18,27,26,55,125,58,24,118
25,16,21,24,57,115,61,17,53
25,16,20,23,52,112,59,16,46
25,15,21,27,64,155,51,16,39
25,13,21,31,65,154,43,16,29
25,14,23,31,57,163,43,15,25
25,17,24,34,53,175,38,16,23
25,16,25,33,53,175,36,18,20
25,17,25,30,37,215,37,23,21
25,19,25,27,36,222,40,24,18
25,19,25,28,36,218,39,24,17
25,16,25,27,57,219,60,25,18
25,16,23,29,65,243,93,28,20
25,19,22,35,97,273,114,32,24
25,20,23,39,108,276,172,36,28
25,21,28,45,125,382,219,46,52
25,33,31,47,149,517,262,51,215
25,47,43,57,167,604,335,62,232
25,51,50,66,189,686,404,71,241
25,52,54,82,262,800,466,78,245
25,59,53,85,261,798,514,102,285
25,61,60,98,270,795,534,110,219
25,61,58,104,351,826,537,120,229
25,69,61,120,451,948,575,147,239
25,73,62,120,467,927,567,156,240
25,75,68,125,482,904,590,146,230
25,76,62,120,534,964,609,145,258
25,72,58,118,492,956,684,161,241
25,61,52,102,404,762,621,140,235
25,58,50,93,344,772,606,133,242
25,58,40,84,335,786,594,142,212
25,51,39,77,236,674,654,139,157
25,49,40,66,209,607,572,116,158
25,59,40,61,186,628,691,113,154
25,57,40,65,212,617,688,106,154
25,58,42,67,195,609,730,101,202
26,62,51,76,203,629,660,104,202
26,60,52,84,252,679,710,92,207
26,51,51,79,257,717,648,91,198
26,72,51,73,231,715,691,119,259
26,68,51,70,226,742,625,107,215
26,64,43,61,204,728,598,104,234
26,66,39,55,167,682,513,105,251
26,67,43,61,154,620,452,100,250
26,43,40,58,165,617,398,72,185
26,41,39,57,162,561,449,74,213
26,49,44,57,158,528,526,72,187
26,48,44,49,125,538,575,73,165
26,59,51,58,124,603,594,77,164
26,61,57,68,100,519,592,74,152
26,62,56,67,96,531,563,74,110
26,62,59,74,99,549,565,84,121
26,62,59,75,106,494,514,83,96
26,53,48,66,102,468,488,79,104
26,52,40,57,107,440,472,81,138
26,50,41,57,122,433,410,83,148
26,51,40,54,129,423,291,73,157
26,54,160,58,124,507,264,73,187
26,58,182,56,137,454,230,75,208
26,61,195,57,163,473,145,68,202
26,63,205,66,222,506,136,59,218
26,59,206,59,236,496,117,53,218
26,56,144,54,235,414,84,47,195
26,49,120,54,225,381,69,38,168
26,40,101,50,203,358,80,32,149
26,34,77,51,186,282,78,31,105
26,27,72,53,166,223,74,24,63
26,22,52,61,173,261,90,30,53
26,23,37,64,182,374,109,37,45
26,22,30,63,183,378,136,37,34
26,24,28,54,121,396,139,37,37
26,25,29,53,115,392,140,38,46
26,22,28,47,105,358,136,32,44
26,23,26,41,83,277,131,32,43
26,24,25,44,77,326,105,32,42
26,23,21,52,158,373,108,34,53
26,28,23,57,206,401,108,36,147
26,32,23,56,209,396,105,37,177
26,31,24,60,231,404,123,33,185
26,37,28,81,330,392,176,40,191
26,43,35,83,306,334,218,45,194
26,51,43,88,278,293,234,59,145
26,55,53,100,290,335,344,78,118
26,66,65,110,296,409,431,97,110
26,66,65,106,301,491,433,98,163
26,80,86,134,529,693,419,197,463
27,119,159,168,644,918,430,232,663
27,133,222,173,683,938,353,233,745
27,131,232,170,688,922,226,227,762
27,129,238,166,661,896,181,230,772
27,120,234,144,510,803,165,158,644
27,84,197,109,392,553,193,92,441
27,69,124,93,326,507,231,85,293
27,68,103,89,325,449,268,87,256
27,80,92,88,312,395,301,81,187
27,84,83,86,297,326,342,73,166
27,89,66,66,250,319,344,73,283
27,84,57,70,317,413,320,77,298
27,86,89,98,375,615,296,91,376
27,104,206,112,422,700,262,107,477
27,106,272,113,443,731,207,111,515
27,104,285,117,468,787,124,119,481
27,100,293,113,425,757,112,112,470
27,96,285,92,362,632,93,99,414
27,63,217,71,299,590,88,82,296
27,53,125,67,252,549,80,81,252
27,33,91,61,202,448,77,65,201
27,32,60,61,184,432,66,62,211
27,30,54,61,189,424,65,56,193
27,37,41,67,192,374,57,60,200
27,37,41,71,203,393,61,55,174
27,38,36,69,194,426,66,55,175
27,38,37,70,184,403,63,53,143
27,41,35,65,172,379,61,55,181
27,36,31,59,139,339,61,45,201
27,36,26,50,123,265,56,45,202
27,34,27,50,124,231,54,44,195
27,33,21,41,116,221,55,45,194
27,28,20,39,84,208,57,41,153
27,25,22,44,87,196,64,34,92
27,21,23,43,83,198,79,28,48
27,36,31,45,80,299,121,35,47
27,61,46,53,115,363,171,36,54
27,63,50,55,123,362,189,36,95
27,66,50,49,122,378,238,50,185
27,70,53,64,225,533,240,56,313
27,67,52,84,315,597,226,57,330
27,47,42,89,353,577,198,57,340
27,45,41,94,375,634,186,59,333
27,40,40,95,380,664,115,48,295
27,33,36,86,332,550,103,39,156
27,30,35,73,258,421,122,35,121
27,33,33,67,205,396,171,40,89
27,71,51,66,162,329,210,44,147
28,85,57,69,151,258,285,56,202
28,90,61,70,146,280,332,73,232
28,90,59,62,126,272,333,73,255
28,88,60,61,110,342,310,71,258
28,66,52,96,451,612,284,73,246
28,53,54,116,510,743,213,99,243
28,61,113,128,537,778,130,96,259
28,63,181,132,547,792,103,130,281
28,65,208,133,553,799,91,141,301
28,61,207,106,367,627,86,144,290
28,56,207,81,283,464,78,126,258
28,40,183,60,230,386,71,120,212
28,38,117,58,228,383,77,80,184
28,36,62,70,264,446,82,59,221
28,34,58,78,239,434,80,45,222
28,40,49,79,234,431,75,38,236
28,49,44,81,233,434,69,40,275
28,46,38,76,212,411,50,36,260
28,43,32,61,128,242,43,35,204
28,43,32,56,136,248,36,36,205
28,37,32,58,189,305,43,34,209
28,25,32,63,193,306,44,30,156
28,25,32,62,192,295,44,36,181
28,28,35,62,190,303,45,39,184
28,30,33,54,164,280,45,40,186
28,29,31,50,91,208,38,40,162
28,33,28,39,73,185,41,48,203
28,34,30,35,71,183,44,55,255
28,32,25,29,79,171,39,54,263
28,30,22,33,70,217,57,53,260
28,33,22,33,69,242,57,55,274
28,30,25,35,73,245,56,50,250
28,32,23,42,76,256,54,41,196
28,32,24,41,71,252,54,39,182
28,30,23,35,78,184,34,35,176
28,26,24,42,74,131,31,34,159
28,29,21,40,72,152,38,36,205
28,24,22,36,64,131,39,33,183
28,25,21,36,61,130,41,33,204
28,25,19,36,46,123,40,43,221
28,26,18,37,47,120,40,38,217
28,21,17,37,43,84,30,33,164
28,20,19,38,45,84,25,33,152
28,26,21,46,55,111,22,32,146
28,27,25,45,52,175,44,21,138
28,27,25,35,63,191,47,23,142
28,29,26,37,64,191,47,25,148
28,29,25,38,66,192,48,32,168
29,27,24,34,58,174,48,33,182
29,25,20,33,56,124,34,32,177
29,26,19,34,84,149,30,32,171
29,24,19,32,98,161,32,34,166
29,21,16,27,98,159,30,27,143
29,15,15,22,100,157,29,25,103
29,20,19,41,100,151,22,25,117
29,21,22,43,72,124,26,25,129
29,22,24,44,51,119,26,22,133
29,26,26,46,53,123,25,22,133
29,28,26,49,49,122,27,21,119
29,27,23,38,55,112,26,22,155
29,26,24,37,68,112,22,17,150
29,26,21,37,91,150,26,16,147
29,24,22,38,104,187,36,17,148
29,25,21,34,119,244,43,22,169
29,30,24,38,183,346,48,28,160
29,40,120,37,184,357,71,29,172
29,39,128,36,181,373,73,32,185
29,40,129,33,186,388,75,32,201
29,43,172,34,180,360,71,30,197
29,48,193,32,126,303,73,26,171
29,46,179,41,133,344,69,31,170
29,48,178,41,130,331,71,30,177
29,48,194,44,108,299,69,31,174
29,45,165,46,113,325,91,34,160
29,35,145,46,106,316,92,34,150
29,27,114,38,92,254,80,30,131
29,24,108,41,86,226,76,27,105
29,25,73,40,87,244,72,29,133
29,28,56,39,93,244,46,26,140
29,27,43,36,108,223,38,25,140
29,30,35,49,125,238,45,64,145
29,33,32,54,134,244,46,69,168
29,32,28,53,140,298,78,73,145
29,27,28,51,138,288,83,72,134
29,28,27,58,122,289,87,74,136
29,25,25,47,96,281,86,46,133
29,21,23,39,82,276,84,40,98
29,25,22,38,70,215,58,31,103
29,24,19,39,82,232,71,33,117
29,25,17,26,79,268,67,32,114
29,24,18,27,93,291,69,30,116
29,24,18,28,97,296,73,29,114
29,19,18,31,100,279,77,32,83
29,19,17,29,81,252,57,29,61
29,17,19,41,106,238,60,25,88
29,18,26,63,127,219,130,31,86
29,19,25,63,131,215,129,31,90
29,21,26,66,134,213,131,29,106
29,21,27,66,134,207,141,29,108
29,19,27,60,117,177,140,29,81
29,20,21,39,81,171,81,21,77
30,20,26,43,74,172,80,21,70
30,17,26,36,67,175,76,21,41
30,21,26,38,65,240,61,22,85
30,22,27,46,72,255,75,25,88
30,22,25,42,76,245,72,24,96
30,21,22,42,72,243,70,25,118
30,21,21,44,86,321,76,25,120
30,22,24,43,91,279,79,26,115
30,24,20,40,79,251,65,24,124
30,24,19,42,73,254,64,25,119
30,25,18,37,71,254,64,25,112
30,25,20,35,73,189,60,27,111
30,23,17,40,85,309,83,33,89
30,19,17,33,87,338,83,33,71
30,17,17,33,88,333,85,33,69
30,24,16,34,90,331,85,33,154
30,25,16,34,79,326,80,32,161
30,25,15,33,56,220,49,23,165
30,26,17,34,52,193,47,22,166
30,26,17,33,58,305,57,24,165
30,21,18,34,57,314,59,24,118
30,19,17,34,56,298,57,21,111
30,18,19,37,62,292,57,21,132
30,31,24,36,63,278,55,20,131
30,33,32,41,57,219,53,20,133
30,35,107,42,56,210,52,20,96
30,46,177,47,56,204,54,23,134
30,154,466,54,72,207,77,47,253
30,282,652,62,109,251,160,144,483
30,472,853,83,157,222,276,309,656
30,607,1039,131,195,249,413,495,790
30,727,1227,196,219,302,663,652,933
30,795,1325,219,237,332,816,756,1100
30,796,1391,233,226,331,887,874,1153
30,820,1352,243,220,337,983,937,1154
30,808,1306,230,192,334,968,886,1151
30,797,1242,228,169,497,882,819,1130
30,780,1226,231,149,547,855,794,1019
30,797,1213,238,154,558,798,717,972
30,736,1301,251,127,548,725,582,966
30,690,1324,265,132,549,757,568,931
30,616,1291,247,132,466,771,584,858
30,603,1250,230,137,403,763,577,977
30,582,1241,246,139,378,787,576,928
30,535,1151,239,134,373,759,578,893
30,521,1099,224,123,374,736,549,899
30,516,1138,201,113,250,694,513,924
30,486,1088,204,90,221,650,448,803
30,467,1038,169,121,247,682,410,921
30,442,1040,146,126,518,740,403,914
31,422,1040,148,137,520,698,410,892
31,383,1028,159,138,528,772,393,872
31,363,989,165,148,534,769,429,832
31,335,962,160,118,529,799,438,668
31,339,875,158,114,331,773,443,658
31,313,892,161,131,324,794,438,716
31,368,817,151,137,317,754,429,732
31,339,844,136,127,295,746,390,721
31,357,883,152,126,271,708,339,742
31,370,896,159,153,323,728,365,738
31,438,933,164,159,447,821,416,677
31,400,1011,168,152,473,835,404,629
31,402,1029,174,152,504,875,379,693
31,388,979,168,151,508,850,370,688
31,362,952,156,141,592,796,336,656
31,275,878,139,129,519,694,290,625
31,245,710,131,167,505,594,269,596
31,208,570,127,190,490,450,239,440
31,137,427,111,202,492,372,187,341
31,112,774,112,210,286,295,161,260
31,58,1024,96,200,234,210,80,150
31,44,1376,95,199,196,187,59,111
31,40,1438,133,435,269,150,49,88
31,44,1462,275,647,473,144,51,63
31,41,1319,289,683,575,159,49,51
31,40,1076,301,742,590,155,46,41
31,41,549,313,804,604,151,46,36
31,37,349,300,725,567,147,43,32
31,25,226,179,559,406,118,27,26
31,23,121,154,512,243,79,22,23
31,21,66,130,421,203,64,18,18
31,20,38,102,277,207,52,18,17
31,18,35,76,201,198,47,19,15
31,19,31,65,142,190,35,17,14
31,18,28,59,119,178,30,18,16
31,17,27,59,112,176,30,18,15
31,13,25,50,99,102,27,19,15
31,14,25,46,95,87,28,19,15
31,14,25,45,86,86,29,19,15
31,13,25,45,81,83,31,19,14
31,15,24,38,83,84,31,21,16
31,15,18,34,58,82,27,20,15
31,15,18,39,45,74,24,18,15
31,15,18,38,39,43,21,17,15
31,18,19,40,37,136,34,23,19
31,19,22,47,49,259,60,30,22
31,33,86,47,52,268,63,34,23
31,39,148,43,50,281,65,38,25
32,41,158,45,56,287,71,39,25
32,47,162,43,59,258,76,39,24
32,49,166,57,84,355,96,53,29
32,47,148,58,87,364,105,56,37
32,52,128,58,87,364,105,54,89
32,55,179,59,86,367,104,56,92
32,51,187,60,82,368,97,54,95
32,49,194,40,59,193,75,40,93
32,45,192,45,67,175,67,38,92
32,43,172,44,67,160,66,37,45
32,96,241,41,69,150,72,34,112
32,115,241,46,77,167,96,40,120
32,116,239,48,71,141,87,40,126
32,121,249,50,59,126,84,34,127
32,141,296,52,62,136,90,37,138
32,166,325,56,60,136,90,40,158
32,158,333,61,57,144,72,37,180
32,159,333,61,53,245,81,39,187
32,158,329,56,53,255,81,39,188
32,147,302,60,51,251,78,40,182
32,94,190,55,56,254,76,43,232
32,99,193,46,56,241,76,51,314
32,132,229,47,54,139,67,56,340
32,131,231,54,56,273,86,60,367
32,136,222,52,58,290,94,63,373
32,127,210,51,52,286,92,61,323
32,123,211,49,48,288,97,53,226
32,93,191,52,67,340,114,45,184
32,93,188,47,64,250,105,40,118
32,68,173,46,67,253,103,35,96
32,160,324,55,70,252,102,44,153
32,193,426,65,71,267,135,78,253
32,264,572,69,60,203,134,104,387
32,462,766,78,91,205,202,144,566
32,580,897,116,115,195,443,303,733
32,709,1005,145,158,252,536,513,941
32,803,1213,177,173,258,714,594,1117
32,907,1324,200,189,274,723,670,1138
32,949,1353,223,183,295,773,712,1226
32,932,1386,240,220,516,769,720,1235
32,911,1514,248,198,542,750,670,1123
32,880,1479,234,194,554,669,700,1131
32,856,1480,256,183,553,696,677,1163
32,755,1433,240,197,550,699,689,1119
32,734,1419,216,139,345,640,639,1066
32,676,1347,205,139,503,638,580,1099
32,688,1338,239,142,518,684,481,946
32,671,1334,244,149,541,715,510,925
32,663,1374,250,122,544,703,466,807
32,660,1302,246,142,564,740,463,857
32,653,1245,247,154,477,760,450,802
32,609,1232,216,160,542,697,439,766
33,554,1231,178,157,578,759,442,799
33,585,1218,167,164,568,787,415,837
33,545,1274,170,159,570,753,409,779
33,592,1322,161,153,630,749,478,860
33,627,1278,155,138,559,835,479,914
33,595,1183,149,139,498,831,380,841
33,537,1175,147,133,513,907,388,776
33,543,1192,162,124,503,920,395,785
33,450,1078,152,108,299,884,287,659
33,328,1056,141,99,293,765,265,554
33,332,1015,125,88,283,650,255,509
33,381,1067,140,84,265,521,262,600
33,400,1036,110,87,311,576,275,529
33,446,1041,114,86,371,626,323,601
33,508,993,122,107,521,686,325,653
33,520,1031,119,110,537,710,328,672
33,520,889,102,127,533,711,312,644
33,535,827,102,120,495,632,317,650
33,527,821,96,120,460,650,361,601
33,496,871,101,120,358,716,375,588
33,456,848,117,116,336,740,381,605
33,447,891,120,97,343,728,396,652
33,399,975,134,93,353,767,437,666
33,369,902,143,112,434,775,400,731
33,366,830,142,101,465,660,388,739
33,401,853,146,117,510,694,393,731
33,364,929,161,118,520,751,439,644
33,391,947,155,126,545,826,383,676
33,407,1001,159,115,557,816,362,642
33,424,1080,157,111,487,856,372,608
33,440,1059,144,99,488,863,388,725
33,442,982,131,98,466,896,369,767
33,456,931,131,92,447,857,375,734
33,454,972,120,89,395,887,359,751
33,426,898,110,103,410,884,362,748
33,410,924,104,96,364,917,356,680
33,431,931,93,95,376,838,364,677
33,407,960,93,93,373,814,365,685
33,383,852,90,103,450,777,409,676
33,387,887,99,92,435,778,422,713
33,327,801,98,91,419,717,405,633
33,275,701,105,145,412,676,340,566
33,233,519,101,162,387,590,317,501
33,195,506,108,235,219,516,247,385
33,117,438,100,253,152,418,174,249
33,88,596,98,253,154,256,132,182
33,76,754,84,234,189,160,106,245
34,67,993,75,238,194,133,97,257
34,56,1266,93,277,185,100,87,259
34,49,1240,127,318,196,77,69,257
34,49,1161,150,438,195,82,62,259
34,40,1066,156,454,300,151,44,161
34,36,843,164,459,347,149,36,117
34,32,289,174,474,362,213,51,95
34,32,186,154,452,365,392,84,79
34,32,152,147,364,376,404,105,59
34,38,102,144,347,524,471,125,49
34,49,74,142,353,554,607,154,48
34,268,70,122,311,567,685,261,77
34,282,77,148,338,595,650,448,112
34,332,77,140,337,623,657,499,168
34,394,80,137,327,500,631,501,310
34,415,84,134,325,459,597,512,357
34,361,72,130,311,449,561,532,382
34,436,75,113,297,469,551,411,406
34,433,77,112,281,588,577,414,412
34,410,75,111,309,648,615,492,400
34,485,89,119,316,647,547,563,405
34,555,97,160,401,805,605,675,529
34,598,116,176,482,919,703,770,647
34,748,167,197,554,940,740,945,777
34,882,241,214,612,936,776,1022,929
34,1024,321,324,772,1017,927,1089,1106
34,1059,393,386,820,944,1088,1134,1148
34,1138,433,434,921,833,1076,1217,1233
34,1132,500,453,951,743,1113,1254,1284
34,1248,535,468,986,756,1209,1263,1311
34,1183,568,454,939,645,1350,1273,1276
34,1267,546,400,910,649,1270,1226,1302
34,1281,612,339,780,674,1314,1185,1201
34,1289,600,325,764,671,1361,1165,1135
34,1257,596,352,730,612,1345,1182,1141
34,1325,606,360,857,695,1174,1291,1141
34,1269,668,384,855,663,1156,1319,1143
34,1264,668,419,922,618,1135,1353,1261
34,1318,690,463,968,631,1161,1362,1267
34,1304,713,440,1015,702,1113,1379,1186
34,1251,670,411,946,618,1077,1317,1110
34,1312,668,394,924,612,1057,1367,1093
34,1305,706,381,868,623,1124,1307,1095
34,1292,707,429,859,611,1072,1244,1114
34,1316,735,425,827,494,1064,1213,1059
34,1342,746,421,740,514,1100,1165,1119
34,1285,739,423,731,540,1097,1057,1033
34,1255,687,426,759,557,1034,1073,983
34,1252,634,361,792,540,958,1084,1004
34,1105,616,364,727,557,1026,1098,1007
34,1121,653,356,735,565,1045,1011,963
34,1024,600,371,768,499,1013,980,976
35,950,539,348,746,434,930,892,830
35,785,560,298,633,378,944,745,692
35,797,473,275,603,306,805,562,703
35,598,356,239,541,216,745,567,579
35,578,331,181,482,183,747,533,487
35,565,336,175,489,204,762,612,463
35,662,357,154,413,204,706,600,404
35,592,357,147,410,189,683,573,254
35,578,368,135,388,159,568,524,229
35,576,361,122,328,152,469,470,231
35,532,328,91,157,137,378,283,227
35,349,219,63,108,142,323,225,193
35,275,158,55,104,277,260,170,183
35,185,124,57,111,355,280,122,177
35,161,133,93,190,605,354,143,346
35,176,142,100,215,746,353,131,417
35,161,139,103,232,809,356,125,415
35,148,138,102,226,796,335,125,418
35,142,135,100,222,780,302,120,423
35,138,104,69,162,611,210,60,292
35,42,66,77,170,423,168,51,136
35,39,52,82,188,280,135,42,118
35,37,48,86,196,204,119,35,93
35,34,46,87,198,207,105,29,66
35,37,47,99,224,465,160,41,53
35,38,45,91,221,550,186,49,47
35,31,41,86,193,560,182,49,47
35,29,41,82,188,565,182,47,42
35,28,41,86,182,545,176,47,39
35,22,28,68,154,441,158,38,32
35,17,29,59,105,354,130,31,26
35,19,30,56,96,342,133,31,25
35,18,30,55,90,342,136,35,26
35,31,44,82,173,621,263,65,36
35,71,94,145,298,721,440,151,132
35,78,162,155,346,899,509,160,304
35,121,191,247,515,1101,702,268,403
35,136,210,278,580,1186,922,319,429
35,141,213,283,619,1205,1026,349,433
35,136,205,280,701,1264,1043,352,428
35,153,201,333,814,1217,1186,415,345
35,181,240,392,926,1331,1295,510,287
35,199,238,399,904,1354,1264,541,294
35,212,288,433,928,1378,1227,542,297
35,220,333,456,871,1373,1250,552,298
35,209,318,431,829,1358,1199,517,284
35,172,290,343,744,1173,1018,389,228
35,149,287,350,780,1129,971,320,180
35,135,252,319,762,1086,1007,348,186
35,140,206,313,795,1157,991,398,211
35,144,204,307,727,1213,928,401,276
36,139,190,299,577,1245,946,395,277
36,134,191,289,545,1247,999,394,275
36,137,195,313,537,1249,942,386,275
36,110,176,269,488,1166,936,307,240
36,112,182,279,535,1226,911,303,166
36,109,182,279,561,1192,938,296,162
36,133,215,288,579,1294,916,343,195
36,143,206,264,559,1262,894,365,214
36,150,209,279,531,1222,873,375,218
36,146,208,264,499,1113,874,374,215
36,144,210,273,498,1125,896,369,206
36,127,180,251,473,1013,908,328,182
36,108,173,228,430,994,919,260,153
36,114,195,219,423,1001,917,234,148
36,108,190,225,483,992,931,227,142
36,114,179,215,486,963,895,242,151
36,108,180,197,485,947,779,226,140
36,99,170,191,505,935,770,213,135
36,91,161,201,513,915,726,211,134
36,110,177,203,443,973,734,246,150
36,120,189,213,420,1079,795,295,172
36,122,183,219,388,1133,801,305,179
36,121,178,216,355,1075,761,302,166
36,111,150,188,298,1009,716,291,158
36,88,108,160,250,879,624,248,136
36,60,78,123,205,603,371,149,88
36,38,44,72,162,311,235,98,56
36,33,40,57,128,276,170,76,44
36,33,37,52,100,182,138,60,34
36,48,33,47,76,134,99,46,32
36,49,26,39,55,86,80,33,31
36,50,26,38,98,75,55,27,27
36,48,23,37,102,55,43,24,26
36,47,23,40,112,251,60,27,25
36,33,22,45,121,390,92,29,22
36,29,23,40,124,426,103,35,26
36,26,22,38,90,432,104,36,34
36,26,24,43,83,437,104,35,34
36,20,28,44,73,366,92,32,33
36,17,27,36,58,219,64,27,33
36,19,30,39,46,142,42,19,27
36,21,34,42,42,125,39,16,16
36,20,32,40,43,109,39,16,17
36,20,28,35,46,93,40,19,19
36,22,30,57,134,84,31,18,19
36,22,31,60,143,66,29,19,19
36,18,27,62,149,60,30,19,19
36,18,31,61,150,63,32,20,16
36,18,30,60,150,53,30,19,16
37,16,29,41,85,46,31,19,18
37,14,28,39,69,60,33,20,19
37,21,35,41,60,120,30,20,20
37,19,31,39,56,125,27,19,19
37,20,32,44,48,127,31,19,21
37,27,52,43,44,127,37,24,74
37,143,179,41,39,122,40,47,219
37,300,267,39,37,72,69,107,389
37,346,330,45,43,66,111,158,463
37,430,412,53,79,113,207,218,522
37,508,576,60,85,139,324,257,592
37,626,713,86,96,163,489,325,708
37,605,890,90,99,170,526,377,784
37,652,1025,116,179,214,649,423,902
37,676,1095,121,176,221,798,440,982
37,676,1151,140,186,226,865,446,989
37,628,1199,189,199,220,874,426,1090
37,697,1214,219,212,232,905,389,1144
37,679,1205,216,156,234,894,377,1115
37,653,1263,218,154,217,832,412,1118
37,684,1230,212,141,210,801,408,1119
37,660,1159,173,151,205,744,392,988
37,566,1063,139,139,191,733,392,865
37,565,979,135,153,158,703,355,779
37,537,894,126,144,151,619,272,712
37,443,784,120,146,143,557,234,657
37,378,724,118,125,138,543,214,560
37,356,665,105,121,126,476,202,494
37,256,587,90,94,95,385,174,439
37,186,505,84,92,83,349,139,324
37,112,569,77,127,55,277,137,312
37,89,742,68,202,47,178,129,308
37,61,921,149,396,75,142,78,236
37,57,1081,224,524,208,109,56,228
37,48,1046,275,596,269,107,51,161
37,48,1005,289,624,443,133,50,91
37,42,854,291,626,474,148,53,66
37,41,607,266,534,476,146,52,54
37,31,204,212,418,442,142,49,48
37,27,123,146,321,419,132,46,39
37,23,84,117,249,257,83,31,30
37,27,51,98,181,230,39,22,23
37,25,35,77,148,222,33,21,20
37,26,67,60,128,209,35,21,20
37,47,88,46,92,188,50,42,239
37,66,102,51,127,146,53,55,310
37,66,105,67,209,81,54,60,321
37,118,168,76,220,70,59,95,411
37,306,267,97,225,97,118,180,657
37,390,351,110,241,121,173,288,813
38,435,510,119,227,134,401,432,940
38,465,585,111,152,146,442,459,1011
38,478,580,109,153,153,463,480,1006
38,479,644,107,147,151,543,468,966
38,498,811,103,127,136,649,445,896
38,505,788,116,142,146,626,362,857
38,567,888,143,186,139,737,356,903
38,577,953,172,184,145,783,364,962
38,546,969,180,187,146,823,401,933
38,497,957,178,183,161,850,404,956
38,479,972,181,189,153,921,387,927
38,411,977,165,149,145,882,380,858
38,394,989,140,137,142,905,374,839
38,354,1008,115,131,135,856,331,797
38,328,930,117,149,118,789,282,719
38,313,897,96,120,116,710,250,658
38,317,886,94,119,127,725,269,650
38,322,881,93,109,137,743,244,582
38,337,832,110,140,130,791,236,605
38,333,836,111,130,130,821,249,626
38,313,844,108,131,128,796,240,620
38,262,719,99,129,117,731,207,588
38,254,682,112,135,102,658,179,633
38,245,673,105,114,111,592,190,624
38,239,624,98,95,103,511,171,549
38,231,568,91,94,105,474,186,574
38,247,580,96,97,107,515,169,587
38,244,588,91,96,110,600,197,569
38,208,546,83,76,114,627,172,521
38,201,501,100,185,119,636,170,514
38,193,502,103,196,106,619,144,446
38,157,458,129,271,133,560,133,367
38,89,347,164,428,122,406,70,238
38,65,411,210,562,142,272,59,175
38,52,731,249,599,240,174,41,145
38,41,998,280,692,332,141,36,113
38,39,1007,300,763,397,120,33,76
38,35,1007,311,771,423,129,29,56
38,35,961,307,734,505,133,33,48
38,32,734,277,701,483,124,34,43
38,28,248,259,646,569,125,35,36
38,28,159,235,556,540,109,33,30
38,21,115,197,452,550,100,31,24
38,18,71,159,367,492,79,26,24
38,17,49,148,337,483,74,23,21
38,17,37,127,266,397,68,19,22
38,18,35,98,200,377,60,19,22
38,18,33,71,150,341,45,21,21
39,17,26,56,118,309,36,20,20
39,17,27,51,106,296,33,21,20
39,15,19,30,63,148,26,19,15
39,13,15,24,44,120,20,15,12
39,13,15,25,39,91,15,16,14
39,12,14,22,31,57,16,17,12
39,12,13,19,26,50,15,16,12
39,12,14,19,25,33,14,18,14
39,13,13,17,22,27,13,17,15
39,13,13,13,18,22,13,14,14
39,13,12,12,17,20,10,13,13
39,11,13,15,14,19,11,14,13
39,11,12,16,14,13,12,13,11
39,11,14,14,15,12,13,12,11
39,11,13,15,15,15,13,12,12
39,11,14,16,15,14,14,12,14
39,11,15,15,14,15,18,12,14
39,12,15,14,13,16,18,15,14
39,11,14,15,10,16,18,16,13
39,13,15,16,12,15,19,15,13
39,13,14,16,13,16,21,15,11
39,14,14,16,15,14,17,14,14
39,14,14,17,16,13,19,10,13
39,18,14,16,16,14,18,8,12
39,17,13,15,15,12,17,13,13
39,18,15,15,15,11,16,14,13
39,18,14,16,12,10,16,15,12
39,17,14,14,13,12,15,15,13
39,13,13,15,12,11,18,15,14
39,13,14,13,14,12,18,14,12
39,11,13,14,13,12,18,14,12
39,10,12,13,14,13,18,14,11
39,11,12,13,13,13,16,14,12
39,12,13,16,14,14,14,14,11
39,13,12,15,13,14,15,13,13
39,13,13,15,13,14,14,12,14
39,13,13,15,12,17,14,11,13
39,13,13,15,12,16,16,14,12
39,11,13,11,13,14,16,15,12
39,10,13,12,13,15,15,14,13
39,11,12,12,13,14,15,15,13
39,11,12,12,14,12,14,15,14
39,14,11,13,15,12,13,13,14
39,13,10,13,13,12,15,14,13
39,13,11,12,14,11,14,15,11
39,12,11,12,14,13,14,14,11
39,11,12,14,13,13,15,16,11
39,10,14,14,12,13,14,17,12
39,10,16,13,13,12,12,14,12
39,13,16,14,12,14,13,14,12
39,13,17,14,11,14,15,15,13
39,14,17,11,11,15,15,15,14
40,15,16,11,13,18,17,14,15
40,16,15,12,12,18,17,15,16
40,15,14,12,12,17,15,13,16
40,14,11,12,13,17,13,13,16
40,14,12,12,14,16,12,10,14
40,14,13,11,13,13,11,12,13
40,14,14,11,13,13,12,13,12
40,14,13,10,13,13,11,14,12
40,14,14,12,12,12,12,14,12
40,13,13,13,12,12,12,15,13
40,13,10,13,13,12,12,14,13
40,12,10,12,13,13,11,14,14
40,11,11,13,14,12,12,14,14
40,10,12,12,15,12,12,14,14
40,10,11,11,14,13,12,13,14
40,11,12,13,14,13,13,14,14
40,11,12,13,13,12,14,12,13
40,10,12,14,12,14,13,14,15
40,11,10,14,12,15,15,16,14
40,11,12,14,12,15,15,15,13
40,13,13,12,11,15,15,16,13
40,14,13,13,11,14,15,18,14
40,14,13,12,11,13,15,18,13
40,15,14,12,12,12,13,16,13
40,15,13,13,12,12,13,17,13
40,13,13,13,14,12,12,16,13
40,38,49,13,13,11,11,14,14
40,50,54,13,15,13,13,17,20
40,110,132,15,16,14,16,19,22
40,113,143,14,17,16,18,19,22
40,191,289,19,17,16,19,20,25
40,232,299,20,18,17,19,21,27
40,233,312,21,17,15,18,17,25
40,215,293,21,15,13,16,17,24
40,214,290,21,16,11,14,16,23
40,149,147,18,15,14,14,15,20
40,61,116,16,15,14,12,13,16
40,51,76,18,16,17,13,14,14
40,34,53,19,19,16,12,12,15
40,27,38,19,20,16,13,12,16
40,36,33,18,20,13,11,13,15
40,35,27,19,19,13,11,11,16
40,35,19,16,17,11,12,10,16
40,35,17,14,13,11,12,8,14
40,36,17,14,12,13,11,9,13
40,25,14,14,12,12,12,8,14
40,21,13,16,13,13,11,8,13
40,19,11,17,13,12,10,9,11
40,16,11,15,14,13,10,10,11
41,15,12,15,12,12,17,12,13
41,13,12,15,12,12,18,14,11
41,12,13,13,13,11,18,16,13
41,13,12,12,12,11,19,18,14
41,13,12,12,14,14,18,18,14
41,13,10,12,14,13,12,17,13
41,14,10,13,13,15,12,16,16
41,15,11,13,14,14,13,14,14
41,16,12,14,14,16,14,12,15
41,14,12,14,13,15,14,11,15
41,15,12,14,13,15,15,12,15
41,14,12,15,13,14,15,13,14
41,12,11,16,11,14,14,14,16
41,11,11,16,13,12,13,14,16
41,12,13,15,12,12,15,15,16
41,10,14,15,13,13,15,16,16
41,12,16,14,13,12,14,15,15
41,12,16,12,13,12,13,14,13
41,12,16,11,12,12,13,15,12
41,12,14,11,12,12,12,13,12
41,12,13,11,11,12,13,11,12
41,11,11,12,12,13,12,10,12
41,11,9,11,11,13,13,11,13
41,12,11,14,10,12,13,10,13
41,11,10,14,10,12,14,12,15
41,13,10,14,12,11,13,13,14
41,16,12,15,11,13,13,14,14
41,16,12,16,12,17,18,19,13
41,15,12,15,13,18,17,19,14
41,16,13,16,13,16,17,18,11
41,16,13,16,12,17,17,17,12
41,12,11,16,14,16,17,17,12
41,13,11,15,15,11,13,10,12
41,12,11,20,44,12,13,11,11
41,12,10,21,45,12,13,11,12
41,12,11,21,46,13,12,12,12
41,14,11,21,53,16,12,12,11
41,13,12,22,56,15,14,13,10
41,13,12,19,39,15,13,15,10
41,13,11,17,39,16,13,15,12
41,13,12,17,38,15,14,14,11
41,13,12,16,31,16,14,15,12
41,13,16,16,30,31,39,21,15
41,28,56,28,98,151,233,76,25
41,52,121,65,191,263,366,123,28
41,58,144,71,256,362,514,173,39
41,61,155,77,275,396,567,192,185
41,83,187,99,314,462,680,229,295
41,88,206,121,340,494,735,254,348
41,90,185,120,319,470,727,254,515
41,99,189,137,288,434,673,263,532
42,102,212,160,286,455,691,303,554
42,95,188,154,271,448,650,323,595
42,94,163,139,229,406,597,307,606
42,84,162,130,227,432,652,298,504
42,71,145,118,209,400,614,278,529
42,68,93,80,187,343,548,224,511
42,72,119,84,161,319,522,176,415
42,67,127,85,154,317,488,165,371
42,64,118,83,107,244,332,154,341
42,64,113,74,108,249,341,130,272
42,61,112,73,110,255,358,120,206
42,38,77,54,81,182,274,82,196
42,49,76,46,79,140,217,59,170
42,54,107,69,121,140,199,56,141
42,103,185,130,237,172,177,66,140
42,136,264,220,421,223,141,72,132
42,187,363,298,537,437,460,130,142
42,207,428,352,627,666,618,156,144
42,217,478,373,647,999,691,165,147
42,211,505,402,689,1101,743,175,147
42,198,477,371,614,1196,819,192,141
42,209,552,387,571,1201,734,165,123
42,194,522,351,492,1251,658,147,115
42,189,511,330,522,1193,630,154,115
42,194,468,292,555,1256,657,172,133
42,218,513,325,621,1321,707,200,156
42,171,382,230,577,1300,698,198,140
42,165,361,217,575,1191,683,195,139
42,159,309,216,526,1048,735,190,135
42,136,305,191,396,876,717,159,106
42,76,212,103,269,632,603,114,58
42,60,156,102,271,552,589,124,52
42,55,140,90,277,460,588,148,52
42,95,218,138,384,417,646,253,56
42,104,237,147,405,386,709,289,59
42,107,238,154,406,368,730,296,61
42,111,247,159,402,384,768,300,101
42,115,256,169,384,404,785,314,239
42,85,183,127,269,347,674,252,267
42,74,148,112,202,308,540,214,269
42,67,129,97,153,257,474,192,273
42,59,104,86,138,224,373,176,262
42,42,65,57,100,169,278,126,149
42,48,71,57,84,136,199,80,86
42,68,106,76,119,159,184,65,79
42,72,111,87,161,214,193,64,61
42,72,111,87,162,247,190,56,56
42,73,112,88,169,243,170,41,52
42,64,103,86,193,281,171,39,45
43,81,102,118,264,472,209,44,58
43,137,208,179,290,651,256,65,94
43,143,220,189,313,693,264,71,97
43,145,221,191,314,748,273,75,100
43,148,227,191,301,750,279,79,102
43,130,211,171,274,650,247,75,90
43,67,109,121,313,474,183,57,48
43,65,91,112,304,392,146,46,43
43,73,106,125,309,346,127,42,37
43,66,94,124,306,329,85,29,33
43,66,91,121,270,318,74,27,33
43,64,83,112,295,282,128,26,33
43,54,86,157,451,281,129,23,29
43,31,67,172,530,208,131,20,24
43,30,68,182,552,169,353,21,23
43,29,68,180,552,154,365,19,22
43,27,68,179,509,141,366,17,19
43,21,53,142,389,134,368,17,16
43,23,56,155,371,85,366,17,15
43,25,55,148,342,60,164,18,16
43,27,55,151,351,58,135,18,15
43,29,61,156,340,51,70,21,18
43,32,62,158,343,47,50,23,19
43,28,50,113,236,40,47,25,19
43,27,48,105,227,40,63,24,18
43,24,45,96,205,38,82,25,18
43,24,42,83,185,37,84,22,17
43,21,39,67,123,30,112,21,16
43,19,40,63,76,27,142,19,15
43,18,37,62,72,42,149,22,16
43,19,35,60,67,51,154,24,17
43,14,25,39,42,49,166,36,38
43,14,21,30,41,49,156,38,41
43,17,20,27,36,48,171,39,46
43,19,18,21,28,35,355,39,47
43,19,17,18,25,20,718,37,47
43,18,18,18,21,17,747,27,34
43,18,19,16,19,16,833,24,31
43,17,17,16,17,18,876,21,22
43,14,15,12,29,17,822,18,21
43,13,14,13,30,17,550,16,18
43,15,12,14,34,19,509,15,15
43,15,16,20,47,19,347,12,14
43,14,15,23,49,16,188,14,15
43,13,17,39,46,17,167,13,14
43,15,23,52,51,18,85,13,13
43,13,23,53,50,15,78,14,12
43,12,22,53,38,16,94,15,11
44,12,24,53,49,15,90,13,10
44,13,23,43,82,18,78,14,9
44,12,19,29,88,19,74,13,11
44,12,20,27,93,21,69,13,11
44,13,19,30,113,27,73,11,12
44,13,17,29,112,28,85,10,13
44,13,15,28,92,25,86,11,12
44,13,14,26,85,24,86,14,11
44,14,14,26,82,22,80,13,13
44,14,12,18,53,13,48,17,13
44,13,14,18,43,11,22,18,13
44,12,16,16,36,12,14,19,13
44,12,15,16,29,12,15,17,13
44,14,14,13,23,14,15,18,12
44,15,14,14,19,19,16,15,12
44,16,13,13,19,19,16,15,12
44,17,11,14,21,19,14,13,13
44,17,10,13,30,20,12,13,13
44,15,13,15,33,20,13,12,12
44,14,13,14,39,16,10,11,12
44,13,14,16,40,16,11,11,14
44,12,14,16,39,16,11,13,14
44,12,15,15,34,15,13,13,15
44,12,13,15,30,13,11,13,16
44,10,13,15,23,13,12,15,14
44,13,14,14,21,12,12,14,12
44,12,14,13,19,11,11,13,13
44,13,15,14,17,11,11,12,11
44,13,14,13,17,12,13,12,10
44,14,15,13,15,12,14,11,11
44,11,15,13,12,13,13,11,12
44,12,15,14,12,14,14,11,11
44,11,14,15,12,14,13,12,12
44,12,16,13,11,13,12,11,12
44,15,14,13,11,11,12,11,12
44,15,14,14,14,12,12,12,11
44,15,13,12,14,11,12,12,11
44,15,13,11,15,10,13,12,11
44,16,11,12,16,10,13,12,13
44,12,12,11,16,11,11,11,13
44,11,11,11,14,10,13,13,16
44,10,11,13,14,11,13,14,15
44,10,13,21,60,15,15,14,17
44,11,13,24,71,17,14,15,16
44,11,13,24,72,17,14,15,17
44,11,13,25,73,17,13,14,16
44,13,15,24,73,17,14,14,16
44,13,15,29,133,15,11,14,14
44,12,18,39,154,19,45,13,14
44,13,20,46,174,21,125,26,14
44,13,21,48,178,23,131,38,12
44,16,22,54,191,157,229,182,25
45,21,24,55,162,439,317,293,42
45,26,28,51,147,488,510,323,46
45,116,33,62,177,496,564,329,50
45,169,39,88,257,524,695,339,68
45,211,55,96,268,579,797,464,185
45,453,86,178,439,651,857,600,230
45,631,134,204,461,697,832,749,336
45,771,164,226,533,751,885,862,404
45,978,198,242,592,754,887,1041,822
45,1096,252,300,748,726,888,1101,993
45,1192,293,280,746,598,892,1181,1129
45,1196,341,315,914,577,912,1163,1202
45,1313,413,323,949,579,883,1284,1242
45,1272,446,327,971,630,928,1335,1078
45,1352,468,348,938,755,996,1338,1120
45,1379,458,364,1004,802,972,1330,1094
45,1441,443,337,876,790,1048,1325,1151
45,1374,386,382,918,773,1094,1233,1190
45,1321,341,370,869,748,1141,1198,1228
45,1166,312,327,868,610,1082,1207,1072
45,1063,306,325,780,489,1123,1192,1069
45,918,365,318,763,427,1088,1226,951
45,752,360,236,608,357,1013,1145,861
45,703,364,229,570,269,828,972,734
45,647,327,192,424,211,719,816,694
45,455,309,133,308,141,739,589,493
45,351,174,100,244,127,622,322,350
45,294,131,83,213,95,677,229,223
45,193,87,73,196,89,685,152,170
45,180,79,58,172,79,674,123,115
45,138,56,35,110,66,478,89,86
45,159,47,48,144,78,393,71,77
45,228,45,55,196,83,194,116,57
45,279,47,91,353,87,80,217,54
45,278,46,93,369,87,50,222,43
45,285,45,95,378,90,35,230,41
45,310,40,88,368,76,38,231,50
45,301,41,84,347,173,110,208,55
45,261,33,39,180,233,168,112,58
45,270,33,34,145,241,172,118,76
45,374,41,28,110,243,176,107,99
45,354,39,27,96,243,175,104,97
45,328,37,24,75,184,142,102,94
45,320,34,23,72,99,65,88,91
45,318,39,38,92,89,57,68,81
45,286,33,41,108,80,46,192,56
45,269,34,44,111,72,43,211,51
45,267,32,44,114,72,42,216,48
45,267,32,43,106,67,35,217,43
45,285,26,31,99,68,36,218,38
46,331,28,40,133,75,44,142,61
46,379,33,76,197,148,91,142,92
46,380,39,85,209,347,220,146,102
46,481,46,87,215,394,236,144,117
46,578,57,89,215,414,242,142,124
46,565,60,89,199,519,309,141,125
46,566,58,67,166,544,326,211,123
46,617,74,79,232,462,270,249,163
46,654,94,83,264,433,280,441,347
46,676,98,82,272,414,340,549,438
46,693,104,95,296,292,318,608,687
46,745,111,112,372,226,430,699,853
46,838,169,157,393,219,617,886,1028
46,946,208,174,421,237,705,895,1091
46,1066,244,212,555,265,797,1043,1162
46,1102,280,227,611,267,902,1133,1249
46,1214,335,239,660,269,945,1156,1347
46,1292,327,213,671,324,987,1102,1385
46,1318,328,208,706,337,1025,1111,1383
46,1310,350,189,667,389,1063,1052,1386
46,1379,401,193,711,420,1080,1047,1335
46,1252,361,182,635,429,1134,983,1256
46,1123,357,182,676,430,1089,997,1222
46,1000,366,184,623,439,1068,1028,1205
46,872,343,180,598,396,1004,1010,1263
46,809,286,158,538,382,944,1101,1247
46,984,317,161,585,389,1050,1178,1182
46,1099,334,181,530,383,1128,1240,1101
46,1210,378,211,689,389,1184,1243,1144
46,1238,364,217,702,376,1242,1241,1039
46,1304,358,221,686,382,1277,1268,1155
46,1265,405,235,700,366,1159,1269,1260
46,1227,436,234,688,395,1258,1263,1302
46,1127,395,206,567,362,1167,1242,1241
46,1115,395,191,535,361,1181,1221,1251
46,972,381,196,532,339,1137,1036,1084
46,854,296,161,437,327,1052,949,899
46,704,202,128,399,211,729,763,738
46,590,135,110,318,183,687,655,664
46,429,109,92,256,162,423,516,512
46,272,73,41,123,94,279,419,298
46,251,50,37,128,80,207,333,225
46,234,35,28,111,64,171,269,177
46,203,34,38,149,61,132,199,104
46,208,32,37,152,59,113,169,80
46,200,33,38,182,60,96,160,66
46,150,33,39,176,55,71,79,56
46,132,30,39,185,54,62,69,49
46,135,32,36,192,45,57,65,40
46,119,28,42,240,47,38,63,44
47,171,29,45,227,40,26,49,45
47,184,27,44,233,44,26,55,47
47,184,28,43,226,45,25,52,47
47,180,25,36,188,40,36,51,47
47,176,29,40,150,50,35,66,40
47,125,22,35,140,49,34,63,30
47,96,22,34,135,46,33,58,34
47,90,23,36,142,45,30,59,36
47,207,28,38,168,72,17,59,48
47,233,25,29,152,70,12,44,50
47,230,26,28,158,71,13,33,49
47,230,24,28,154,73,12,30,45
47,235,24,26,146,73,13,28,44
47,166,18,27,132,49,12,27,30
47,224,22,26,128,45,13,18,35
47,226,23,30,162,56,13,28,38
47,231,23,29,166,54,15,33,41
47,276,23,33,182,59,18,70,42
47,335,30,48,213,74,34,210,175
47,447,54,73,380,89,68,330,345
47,604,85,90,405,100,166,453,539
47,713,135,113,463,145,318,606,664
47,872,175,190,549,200,480,877,888
47,1015,211,205,578,206,605,1052,1108
47,1052,261,227,574,253,788,1139,1173
47,1288,297,246,625,267,864,1302,1256
47,1379,318,249,672,289,925,1415,1319
47,1457,330,207,703,289,959,1396,1277
47,1451,384,220,742,328,1060,1347,1396
47,1441,380,216,732,363,1033,1358,1417
47,1309,475,265,778,484,1042,1326,1512
47,1300,487,262,779,554,1053,1213,1481
47,1274,491,261,718,584,1116,1178,1490
47,1292,505,277,773,609,1029,1154,1298
47,1266,502,287,778,586,1045,1175,1270
47,1187,418,252,780,502,1035,1136,1092
47,1185,420,269,722,446,1073,1174,1083
47,1136,526,282,760,457,1011,1171,1128
47,1061,517,272,729,417,1044,1179,1102
47,1217,586,277,773,434,1022,1134,1194
47,1194,591,270,726,439,1157,1164,1167
47,1114,563,249,766,442,1156,1154,1116
47,1145,449,241,729,414,1200,1147,1036
47,1147,402,216,644,407,1207,1176,981
47,1075,359,184,575,408,1190,1161,922
47,1056,335,164,528,404,1044,1100,997
47,1143,429,191,498,379,1084,1124,1099
47,1136,435,195,529,416,1047,1109,1071
47,1145,434,205,529,403,1005,1163,1106
47,1144,429,258,540,439,1136,1186,1095
48,1223,536,274,524,420,1137,1218,1068
48,1105,480,277,576,434,1114,1165,1017
48,1017,484,269,527,366,1075,1203,1037
48,1037,488,274,538,380,1059,1165,1071
48,1005,489,232,508,296,990,1140,1190
48,1005,386,234,551,301,996,1121,1146
48,1039,379,224,520,303,943,1131,1091
48,1001,388,225,518,332,971,1074,1111
48,1054,389,237,637,359,1013,1045,1078
48,984,327,224,644,359,893,1027,833
48,1024,384,252,702,412,952,990,900
48,1015,434,263,674,388,965,1005,898
48,1081,412,272,703,351,984,1004,899
48,1032,431,281,703,449,988,1062,1077
48,1087,425,278,719,443,1038,1135,1129
48,1015,354,241,655,403,1056,1132,1120
48,1067,333,219,652,398,1020,1096,1195
48,1002,347,204,672,420,956,1153,1120
48,1001,315,168,621,299,944,1125,1018
48,952,339,169,564,312,986,1147,1077
48,949,330,171,616,315,979,1205,1081
48,883,277,183,647,320,1110,1256,1106
48,1066,305,194,634,312,1151,1219,1252
48,1000,335,189,608,277,1140,1211,1209
48,1084,340,193,606,274,1171,1209,1164
48,1034,355,176,531,288,1143,1169,1133
48,1054,380,165,510,295,1042,1173,1106
48,862,387,143,451,286,1041,1181,960
48,969,347,131,413,285,1018,1180,957
48,906,323,163,453,295,912,1119,902
48,955,305,193,534,292,950,1100,980
48,925,315,189,502,262,958,1068,942
48,944,310,200,522,265,930,1096,1051
48,793,331,234,557,299,972,1137,1066
48,730,324,247,597,334,967,1105,1049
48,750,330,226,515,333,1083,1128,953
48,736,336,237,517,348,1098,1123,982
48,689,296,241,583,340,1107,1126,939
48,726,274,236,595,320,1051,1020,885
48,758,298,220,603,299,1076,1091,930
48,700,314,219,613,276,892,1048,1019
48,657,250,205,603,257,783,1030,963
48,674,246,190,573,265,754,947,867
48,726,243,176,543,298,825,992,897
48,762,229,150,462,260,827,886,854
48,803,225,141,478,268,787,855,855
48,799,236,143,516,269,773,870,822
49,791,228,165,544,253,749,869,890
49,754,246,181,571,261,760,927,951
49,726,307,179,580,264,738,944,976
49,687,299,189,593,250,761,1030,850
49,718,305,184,578,247,815,1021,839
49,723,311,176,550,249,809,1042,821
49,661,291,125,467,172,698,901,670
49,707,203,118,473,191,675,919,656
49,653,170,95,409,178,637,798,634
49,691,140,94,381,162,552,789,626
49,662,132,80,376,156,568,698,558
49,688,131,86,385,158,574,678,530
49,620,124,76,345,133,587,655,443
49,636,133,86,355,168,658,759,562
49,590,147,92,359,180,688,720,650
49,558,145,84,294,179,648,725,639
49,510,138,80,280,174,651,859,632
49,408,132,81,277,158,673,941,604
49,452,124,75,258,116,611,978,487
49,412,104,65,250,115,586,960,345
49,419,96,73,272,110,604,947,306
49,437,103,81,271,116,617,834,312
49,439,98,80,275,113,525,737,306
49,313,72,76,267,111,462,517,234
49,262,62,73,249,91,409,467,206
49,294,62,65,212,76,347,504,177
49,255,48,51,194,57,249,473,155
49,225,42,45,175,54,201,376,112
49,214,40,43,168,55,172,369,96
49,207,37,39,158,50,149,348,86
49,106,23,22,87,47,124,250,70
49,111,18,23,78,46,114,233,55
49,103,16,20,121,40,56,107,37
49,96,15,19,119,22,44,83,24
49,96,15,19,122,22,39,74,21
49,93,16,23,129,25,35,71,20
49,82,19,33,175,28,27,67,21
49,136,21,32,146,28,20,60,29
49,223,25,36,156,29,19,58,35
49,242,25,36,153,28,20,59,49
49,242,24,34,148,31,20,100,52
49,241,25,35,150,29,22,100,54
49,215,24,36,153,29,22,108,51
49,154,21,33,148,28,23,111,50
49,140,21,35,151,29,22,111,37
49,147,19,36,169,22,21,61,30
49,190,19,42,127,35,17,57,40
49,201,19,41,117,35,17,38,53
49,184,19,45,161,48,17,40,53
49,171,21,46,174,53,17,40,53
49,183,25,45,157,54,17,47,56
49,181,24,30,154,48,17,75,49
49,171,25,33,190,51,16,77,33
50,172,22,25,152,40,15,74,30
50,182,22,24,138,34,15,76,31
50,164,18,24,138,35,14,70,25
50,119,16,28,149,31,12,38,21
50,134,22,25,103,26,12,32,43
50,139,23,26,125,27,11,26,46
50,138,22,25,121,26,11,17,46
50,127,22,25,139,29,11,13,46
50,122,23,22,131,31,14,11,48
50,122,20,23,136,29,21,44,46
50,129,21,24,124,32,30,80,72
50,118,22,26,150,40,44,89,76
50,130,24,28,150,42,47,95,82
50,172,31,35,163,49,47,151,99
50,317,40,41,183,68,60,171,108
50,343,42,41,179,68,75,175,133
50,360,43,44,171,71,79,208,238
50,371,44,49,227,71,84,244,245
50,376,39,54,224,72,86,220,255
50,368,45,50,225,62,109,223,401
50,391,58,53,247,67,149,389,523
50,416,65,52,256,79,163,443,565
50,464,70,95,401,180,247,472,795
50,599,110,104,475,192,454,613,932
50,767,230,134,486,213,677,852,1062
50,959,297,170,526,235,840,907,1230
50,1099,329,199,572,243,924,1054,1321
50,1244,363,229,561,262,1070,1210,1361
50,1322,394,229,518,264,1129,1281,1351
50,1277,349,233,535,283,1128,1239,1393
50,1237,304,221,609,290,1060,1275,1355
50,1196,317,251,653,307,1051,1196,1327
50,1128,292,251,734,267,1068,1132,1206
50,1049,306,254,766,283,1061,1113,1173
50,1045,320,259,801,274,1008,1134,1039
50,1023,336,266,799,252,989,1075,1023
50,1091,347,255,804,256,1131,1215,1157
50,1163,344,243,764,262,1079,1176,1209
50,1120,322,264,827,255,1020,1143,1350
50,1156,309,244,794,244,1017,1192,1404
50,1124,286,230,731,253,1041,1283,1308
50,963,251,214,729,245,895,1198,1125
50,748,240,182,614,219,834,1221,1017
50,705,189,144,462,207,788,1178,802
50,713,192,148,436,197,774,1108,752
50,611,186,145,429,192,839,1081,782
50,603,136,110,336,173,868,1090,778
50,583,132,108,344,163,795,995,774
50,562,123,96,337,145,768,943,709
51,228,74,80,318,131,694,803,519
51,184,57,69,268,107,508,562,363
51,147,43,41,162,65,244,194,221
51,132,41,40,157,59,197,168,207
51,120,36,39,151,46,145,146,182
51,111,29,34,142,37,115,117,136
51,134,25,32,140,29,69,95,74
51,158,24,30,146,34,60,89,54
51,158,23,24,119,48,56,124,61
51,163,23,22,114,51,47,127,55
51,173,21,22,114,51,42,126,49
51,161,22,23,111,52,36,125,47
51,159,22,23,113,45,29,130,59
51,163,23,23,141,44,23,118,56
51,283,30,36,218,44,47,218,134
51,429,57,54,238,56,154,381,187
51,546,83,61,270,102,256,537,465
51,565,88,85,302,150,267,598,498
51,574,89,94,343,153,276,621,503
51,528,87,93,321,158,289,635,583
51,565,113,98,350,170,430,629,811
51,595,170,161,498,255,559,759,866
51,807,205,187,601,278,717,899,1028
51,929,256,202,616,328,883,972,1142
51,1079,298,208,674,344,975,1043,1166
51,1124,396,230,735,411,970,1112,1185
51,1160,385,219,688,390,998,1173,1197
51,1138,459,217,612,365,999,1164,1215
51,1133,484,242,670,330,979,1226,1191
51,1188,481,255,638,359,971,1261,1209
51,1265,443,259,632,301,1049,1248,1309
51,1268,471,259,656,318,992,1212,1329
51,1268,416,295,746,328,1020,1233,1320
51,1226,382,278,688,373,998,1197,1358
51,1130,390,284,715,355,1013,1160,1379
51,960,363,270,671,333,924,1136,1180
51,855,322,253,621,293,911,993,1033
51,701,290,184,486,278,768,816,858
51,620,252,159,446,205,645,661,669
51,431,196,115,353,158,480,496,442
51,336,137,79,280,151,364,308,273
51,253,104,62,196,104,229,168,218
51,156,63,44,152,89,165,122,138
51,143,58,35,117,61,129,103,102
51,109,45,26,109,40,99,79,73
51,77,36,35,184,58,85,57,52
51,61,26,37,190,62,74,36,50
51,45,21,37,197,63,57,28,35
51,44,22,38,199,78,59,30,28
51,41,21,40,181,79,55,28,24
52,32,17,29,103,67,51,27,20
52,16,16,25,87,59,51,26,19
52,15,20,23,75,91,62,29,21
52,40,100,23,80,264,88,35,58
52,70,172,28,79,283,99,47,208
52,125,238,39,85,292,108,99,291
52,288,258,50,103,296,125,164,355
52,343,533,69,110,308,171,212,461
52,476,672,85,143,227,204,257,704
52,738,749,128,162,224,355,373,882
52,857,901,133,162,224,521,527,1030
52,944,1068,147,177,262,603,568,1083
52,1015,1117,145,178,268,760,639,1130
52,1000,1177,152,147,244,812,682,1141
52,940,1332,156,147,267,811,679,1126
52,860,1332,172,152,271,779,646,1042
52,814,1333,173,132,260,835,655,1096
52,853,1325,173,138,274,709,591,1066
52,833,1220,163,141,276,662,532,929
52,756,1114,137,127,257,740,488,855
52,756,1129,120,119,265,783,419,871
52,701,1058,105,117,285,771,388,817
52,543,981,111,104,267,933,375,814
52,542,1068,115,100,264,970,376,838
52,485,960,104,93,249,938,345,762
52,438,820,101,112,235,860,297,652
52,361,704,91,108,177,760,216,508
52,301,607,125,300,143,519,183,375
52,215,402,124,327,118,408,147,267
52,155,469,120,331,106,182,138,196
52,105,713,112,327,75,108,104,160
52,69,832,122,357,86,86,49,127
52,45,825,92,282,79,71,37,110
52,40,818,145,418,99,59,26,69
52,33,752,154,450,110,51,26,53
52,26,460,154,448,110,46,22,42
52,23,136,146,427,95,41,23,32
52,22,117,134,391,88,42,21,29
52,20,53,63,203,60,39,20,17
52,22,35,64,222,70,38,19,15
52,21,31,68,250,75,43,18,15
52,21,30,69,244,82,51,18,17
52,21,30,71,243,140,68,22,20
52,22,34,100,368,430,212,40,23
52,26,31,94,364,599,280,63,35
52,29,48,157,522,809,352,73,38
52,44,87,299,734,912,501,85,44
52,49,107,382,942,1008,632,105,51
52,64,148,533,1087,1079,742,165,71
52,80,194,652,1215,1162,813,184,75
53,101,223,700,1231,1208,884,212,102
53,108,231,707,1244,1225,876,215,107
53,110,228,687,1229,1230,940,219,109
53,103,207,593,1221,1205,1024,195,105
53,92,169,485,1145,1113,1041,185,103
53,71,136,431,1132,1021,1012,176,83
53,55,114,372,1040,981,1073,174,74
53,61,126,410,1020,964,1039,198,84
53,60,127,402,918,889,914,187,77
53,70,145,455,943,902,883,185,82
53,66,139,438,929,866,881,170,77
53,67,140,436,954,843,748,169,79
53,59,124,378,842,794,618,122,61
53,55,120,360,754,749,555,111,57
53,40,90,245,618,651,446,91,47
53,38,81,212,497,562,328,69,44
53,34,58,141,321,474,297,51,38
53,29,48,90,181,371,277,46,47
53,38,50,72,124,313,199,39,49
53,76,88,48,82,246,158,29,44
53,116,126,45,72,165,127,26,41
53,120,135,37,55,137,97,20,42
53,123,136,34,44,100,76,19,25
53,126,140,32,34,74,55,19,21
53,108,121,27,31,65,54,16,20
53,67,82,21,30,41,38,15,17
53,64,64,18,28,34,34,17,17
53,59,62,17,25,30,32,13,17
53,48,43,15,26,27,27,13,16
53,44,35,16,19,20,19,11,15
53,38,30,15,17,20,18,13,13
53,25,25,15,16,20,20,11,11
53,21,22,14,16,19,20,11,11
53,15,21,14,15,20,19,11,10
53,22,21,14,15,21,19,13,12
53,68,197,17,24,33,37,14,19
53,152,267,26,45,61,76,29,49
53,186,350,28,47,67,87,49,276
53,380,547,39,61,82,94,126,432
53,433,766,67,101,184,128,195,652
53,614,857,90,137,241,170,298,693
53,647,849,105,141,243,216,420,790
53,689,940,118,162,287,344,475,864
53,745,942,123,165,291,366,519,880
53,854,942,125,159,265,417,613,925
53,771,945,161,154,252,529,646,1050
53,778,1144,169,153,260,592,626,1087
53,802,1173,174,139,263,650,626,1101
54,767,1182,178,138,269,701,598,1104
54,645,1220,175,125,265,692,534,1005
54,661,1345,144,94,243,740,471,897
54,612,1225,125,87,234,716,425,794
54,535,1120,108,76,180,631,369,682
54,392,1054,95,60,159,569,340,582
54,334,865,80,65,124,545,247,485
54,188,494,60,165,103,334,179,383
54,169,371,61,188,85,233,100,312
54,106,352,63,205,71,157,67,203
54,99,640,62,220,63,116,46,153
54,70,785,65,221,64,79,36,115
54,50,788,59,171,49,58,27,82
54,37,778,51,145,45,50,20,63
54,29,765,43,120,31,50,19,42
54,26,492,39,92,32,41,19,34
54,19,141,33,81,29,37,18,27
54,15,89,23,78,30,36,18,19
54,18,60,64,157,50,41,22,17
54,17,48,121,465,141,50,20,15
54,21,50,160,539,288,115,26,20
54,32,67,214,615,494,157,49,34
54,42,91,272,755,698,377,77,45
54,45,94,295,814,841,510,101,58
54,56,129,422,859,1021,748,126,65
54,60,133,432,930,1088,806,144,69
54,68,160,503,1005,1300,958,161,67
54,67,158,499,1051,1263,1022,164,71
54,69,161,499,1067,1290,1069,168,67
54,78,162,462,1103,1224,1021,160,72
54,85,175,480,1118,1253,1034,161,82
54,86,160,423,1110,1012,914,152,91
54,88,160,416,1065,992,894,165,94
54,88,161,407,1021,888,849,163,94
54,80,148,344,880,860,750,164,92
54,71,133,308,855,750,751,167,81
54,59,114,255,771,776,795,165,72
54,51,109,237,709,850,698,142,60
54,48,111,247,803,904,664,131,56
54,38,88,214,792,862,660,129,50
54,34,76,179,671,814,563,102,44
54,41,76,168,635,719,463,86,92
54,42,66,138,556,543,396,79,126
54,52,44,71,349,386,269,76,145
54,54,42,48,249,313,202,54,147
54,54,44,42,224,285,171,53,153
54,47,35,34,146,263,145,52,132
54,45,29,28,122,244,122,44,102
54,27,22,21,85,137,102,21,73
54,18,24,18,60,77,78,20,64
54,69,85,22,61,63,80,36,67
55,116,148,26,52,57,68,61,88
55,186,305,30,50,57,61,110,266
55,419,499,47,54,66,103,156,369
55,558,550,58,56,93,208,205,436
55,586,610,58,69,132,269,231,502
55,598,725,59,75,147,317,243,530
55,585,715,60,79,157,354,246,545
55,503,689,52,90,175,380,250,520
55,451,740,73,99,186,443,284,629
55,508,776,75,91,177,466,293,681
55,559,797,85,91,174,595,321,803
55,635,950,93,92,174,636,321,808
55,634,1008,101,81,168,666,330,830
55,640,1110,83,71,152,659,333,760
55,679,1101,103,84,145,718,352,748
55,648,1055,96,81,158,687,319,612
55,584,935,94,77,154,676,307,557
55,544,815,84,91,137,662,278,518
55,451,580,83,97,124,609,204,462
55,256,485,52,92,108,503,107,324
55,172,380,50,104,68,373,92,283
55,108,575,34,105,50,281,75,241
55,85,715,31,90,46,187,57,166
55,66,715,27,80,42,170,38,123
55,41,714,25,72,46,128,26,97
55,33,708,60,231,44,100,22,74
55,26,481,70,288,48,86,21,52
55,21,167,140,460,95,75,21,38
55,29,123,224,678,154,120,38,39
55,33,92,258,820,389,351,55,38
55,44,88,310,951,546,521,70,45
55,56,105,373,1084,695,640,108,58
55,82,155,497,1152,817,753,145,85
55,100,194,603,1329,924,844,190,98
55,108,214,628,1346,1025,851,196,103
55,107,221,615,1297,1011,846,213,104
55,104,228,606,1260,970,960,210,99
55,95,216,556,1231,954,947,223,91
55,86,189,463,1063,877,959,216,92
55,77,170,439,1029,784,1041,215,89
55,78,162,443,999,760,1016,206,89
55,81,160,436,950,756,919,205,98
55,69,130,360,869,731,860,166,85
55,53,111,288,693,698,757,125,65
55,48,101,241,560,589,538,112,59
55,40,89,198,475,524,459,88,51
55,22,40,112,349,426,237,54,24
55,24,45,94,250,247,170,45,21
55,33,41,63,194,222,136,34,20
55,130,148,57,143,144,136,29,26
56,150,177,49,120,132,114,35,47
56,166,222,51,100,123,110,57,127
56,370,359,58,99,119,138,170,319
56,538,521,75,108,139,233,221,563
56,663,737,86,102,148,337,337,708
56,838,810,115,120,169,433,511,791
56,907,862,134,148,228,500,551,822
56,1032,937,141,156,249,591,577,939
56,1025,948,157,166,291,704,571,906
56,1008,1013,160,167,292,725,528,830
56,896,1068,147,156,284,757,397,843
56,848,1152,158,131,254,809,408,883
56,677,1140,157,120,239,869,420,803
56,642,1133,138,94,183,908,421,734
56,584,973,129,87,202,954,434,793
56,580,888,122,80,195,925,414,726
56,567,719,95,196,173,862,356,650
56,490,594,81,203,167,736,253,529
56,398,466,72,202,148,546,231,491
56,320,389,62,208,102,355,160,314
56,233,621,59,218,84,240,128,236
56,172,720,41,164,79,162,92,162
56,142,719,102,359,95,140,77,117
56,103,711,211,583,210,146,57,78
56,77,703,284,676,321,248,72,75
56,63,435,388,753,520,377,99,65
56,56,194,463,947,653,533,108,57
56,59,160,557,1022,760,594,120,56
56,64,176,588,1095,832,673,127,58
56,71,192,643,1195,948,765,144,57
56,74,192,644,1257,1003,826,162,61
56,73,185,602,1212,1045,864,163,61
56,72,178,552,1217,1113,964,174,63
56,65,157,502,1128,1124,1041,188,71
56,61,128,405,1006,1032,1002,183,74
56,54,104,319,919,908,937,153,69
56,53,102,309,811,769,821,146,67
56,41,66,222,631,547,658,124,60
56,43,62,181,499,375,418,89,42
56,70,79,135,408,306,279,50,89
56,178,172,103,261,247,167,70,252
56,212,218,94,173,238,177,156,453
56,307,360,121,172,234,249,206,694
56,413,550,129,162,214,280,230,858
56,549,778,128,150,170,415,246,877
56,647,826,124,143,168,488,256,854
56,650,826,116,159,165,512,224,778
56,644,817,308,579,363,502,189,592
56,601,762,374,719,663,636,182,327
56,481,573,410,776,795,640,173,262
57,301,497,424,837,870,701,163,240
57,276,485,442,862,1071,830,178,201
57,188,414,332,671,1042,824,174,143
57,126,339,267,559,933,844,233,143
57,112,272,221,487,855,870,265,223
57,100,250,198,436,826,844,294,260
57,95,243,154,402,572,723,285,276
57,102,251,153,404,556,776,312,299
57,139,239,148,360,465,633,267,299
57,181,275,164,381,513,529,230,256
57,218,327,209,453,664,556,234,234
57,237,344,231,536,769,588,250,241
57,252,366,245,547,879,537,226,221
57,229,345,233,547,930,635,229,201
57,201,303,211,560,974,709,251,194
57,157,238,173,529,864,650,210,160
57,138,227,155,497,769,636,198,224
57,136,248,172,516,748,735,320,328
57,151,235,171,512,711,727,321,430
57,150,236,169,485,578,645,306,443
57,161,238,156,407,534,613,305,446
57,159,365,141,305,508,575,293,412
57,132,356,68,207,276,394,136,335
57,112,364,89,256,429,325,117,189
57,102,373,110,419,576,336,116,152
57,79,418,109,429,596,327,108,144
57,205,590,128,436,602,321,133,339
57,403,778,155,458,642,371,191,674
57,593,930,170,425,535,393,461,843
57,861,1199,229,271,411,401,587,1067
57,887,1295,248,249,390,407,645,1136
57,932,1358,249,234,377,406,662,1117
57,931,1414,262,183,311,365,660,977
57,828,1355,250,195,269,248,518,849
57,551,1138,226,349,236,203,372,545
57,514,1014,244,488,469,193,260,387
57,384,778,245,543,714,259,201,311
57,173,411,265,678,856,275,148,213
57,151,263,281,749,1103,295,114,152
57,128,179,321,802,1214,436,135,135
57,106,142,302,767,1248,461,147,117
57,87,121,296,742,1185,450,147,102
57,77,110,259,628,1142,435,145,98
57,104,349,237,541,956,434,145,224
57,162,530,132,342,822,290,138,386
57,382,687,125,237,660,256,152,506
57,526,903,167,201,562,304,362,605
57,812,1129,197,191,455,362,466,906
57,896,1198,252,177,338,412,514,1072
57,921,1312,308,164,277,444,584,1174
58,952,1385,330,159,262,532,588,1164
58,917,1434,349,146,220,512,493,1136
58,693,1301,343,182,177,497,406,927
58,596,1208,327,395,378,460,349,706
58,552,1014,344,585,633,430,201,428
58,356,801,326,632,741,328,169,317
58,257,403,361,821,951,332,152,241
58,209,264,376,876,1132,373,133,187
58,147,177,376,831,1228,417,120,166
58,110,123,360,836,1323,478,128,112
58,97,113,373,867,1352,525,138,93
58,74,107,304,703,1319,531,137,81
58,104,307,269,634,1212,482,139,303
58,230,550,253,598,1082,442,207,532
58,382,698,185,421,847,416,352,775
58,473,736,172,268,699,341,521,942
58,602,1079,184,244,496,321,616,1158
58,746,1123,197,229,393,416,689,1218
58,787,1240,211,223,350,545,797,1279
58,799,1324,212,181,271,578,754,1185
58,768,1376,192,167,257,591,655,1084
58,682,1184,184,279,327,570,571,865
58,523,1139,278,491,670,504,481,730
58,417,917,301,583,910,396,229,448
58,248,667,389,836,1030,412,189,338
58,184,506,406,895,1108,431,154,241
58,147,359,420,943,1212,535,155,177
58,114,230,377,944,1121,578,165,139
58,88,156,354,937,1079,569,158,107
58,86,140,267,789,1187,581,169,103
58,121,376,243,744,1151,574,165,112
58,186,631,207,661,1031,497,185,348
58,244,773,175,518,975,495,207,426
58,342,894,156,433,815,471,256,632
58,422,1119,130,297,445,362,274,678
58,474,1161,129,235,343,380,312,813
58,504,1181,152,187,285,392,305,798
58,542,1261,195,177,233,330,337,969
58,598,1200,195,146,196,324,306,897
58,554,1019,190,129,189,345,287,869
58,518,927,213,399,477,311,262,749
58,478,771,396,722,680,439,254,709
58,406,459,421,865,894,543,190,387
58,215,412,420,906,1089,578,183,261
58,188,350,433,977,1188,615,182,240
58,138,285,487,1070,1286,687,168,223
58,106,201,378,953,1290,723,205,164
58,104,170,332,893,1246,778,225,137
59,91,135,335,882,1233,775,224,118
59,100,306,321,809,1158,736,234,251
59,154,521,214,575,971,664,322,563
59,290,700,147,453,856,524,377,777
59,448,901,173,297,727,306,412,973
59,523,1112,224,197,423,384,478,1069
59,669,1315,257,172,361,383,487,1099
59,723,1337,253,143,306,377,437,1002
59,692,1294,253,189,315,375,368,851
59,610,1184,345,480,588,377,310,620
59,553,992,411,795,827,247,196,436
59,368,653,400,864,992,372,157,273
59,224,442,398,908,1259,452,149,156
59,183,311,406,978,1339,523,150,118
59,156,228,336,926,1433,656,189,121
59,138,221,257,814,1422,737,217,131
59,119,209,255,813,1471,725,226,132
59,155,310,268,791,1302,715,236,249
59,227,464,266,702,1211,668,270,391
59,399,768,283,647,978,562,292,515
59,573,1071,271,463,814,486,335,666
59,791,1351,325,331,474,435,366,797
59,831,1432,327,261,319,377,372,835
59,904,1507,369,224,278,374,392,827
59,934,1523,364,162,250,375,398,816
59,937,1454,347,150,240,341,381,856
59,773,1219,292,145,495,392,346,765
59,723,1155,315,392,671,411,342,704
59,611,1018,313,499,805,439,305,657
59,464,791,318,658,938,457,251,582
59,211,543,324,696,1134,557,234,303
59,180,501,343,741,1116,565,272,225
59,178,349,332,750,1209,678,296,192
59,162,270,296,766,1199,727,305,159
59,145,264,258,656,1231,721,314,187
59,185,442,244,629,1107,645,292,323
59,197,610,207,573,1044,628,327,460
59,261,794,182,457,828,526,405,684
59,352,1037,161,305,725,465,436,755
59,447,1109,176,258,469,437,451,847
59,461,1107,164,227,317,436,471,856
59,462,1055,159,214,282,392,431,855
59,429,939,139,140,314,319,332,698
59,361,700,128,134,565,273,264,622
59,231,573,103,300,780,275,221,477
59,147,431,153,508,923,347,174,382
59,119,335,161,532,1075,532,178,195
59,113,286,198,607,1256,692,242,182
59,88,182,204,635,1217,746,245,170
59,90,162,209,586,1182,791,258,157
59,102,154,197,456,1153,834,286,164
59,108,220,191,437,1087,755,273,260
0,210,348,154,342,878,621,230,388
0,307,498,141,299,841,588,377,556
0,350,693,127,274,714,526,455,687
0,388,735,92,206,581,401,460,800
0,497,960,124,191,431,356,512,900
0,572,1106,154,162,368,346,515,898
0,573,1233,168,117,231,257,419,818
0,598,1219,185,109,189,213,327,725
0,588,1238,188,132,160,167,285,603
0,514,1075,207,362,361,134,171,401
0,394,891,255,567,628,155,127,268
0,327,610,252,607,860,331,110,227
0,227,422,241,631,963,344,86,178
0,184,262,248,661,1066,365,94,137
0,127,183,217,585,1093,446,109,100
0,102,133,157,490,1135,460,115,92
0,91,167,152,459,1047,446,130,90
0,130,404,152,430,993,449,135,333
0,196,611,140,381,930,455,202,430
0,291,755,161,356,861,390,205,459
0,439,874,158,201,620,359,259,643
0,472,958,155,159,487,243,283,699
0,496,982,151,143,402,221,294,665
0,507,975,163,114,271,168,259,616
0,470,909,142,89,156,122,251,601
0,339,806,130,151,149,103,192,407
0,293,708,161,256,176,91,137,299
0,232,566,286,573,461,127,114,187
0,148,359,294,612,699,199,95,157
0,108,245,319,706,844,283,110,132
0,104,208,317,716,1080,383,137,108
0,94,157,317,731,1209,437,145,107
0,84,142,217,553,1357,484,147,97
0,78,158,209,585,1357,507,154,101
0,108,272,168,487,1303,480,143,136
0,149,439,163,455,1125,429,131,350
0,222,676,143,381,986,380,132,371
0,435,840,177,340,651,310,141,461
0,586,1092,207,193,396,238,140,493
0,699,1271,239,147,280,208,146,494
0,757,1338,258,137,232,154,148,478
0,758,1313,254,121,188,144,142,469
0,670,1239,225,97,141,121,121,391
0,549,1035,180,101,95,89,104,355
0,392,783,135,166,217,102,93,342
0,243,567,96,205,232,100,59,168
0,175,357,84,209,232,87,44,145
0,135,260,143,381,514,126,49,109
0,104,192,205,564,868,338,113,95
0,86,139,203,556,1026,436,129,86
1,74,124,204,603,1180,515,143,82
1,72,102,242,690,1297,563,148,85
1,79,110,243,654,1373,634,173,100
1,75,102,218,565,1253,567,151,89
1,94,148,233,571,1166,496,138,84
1,147,412,234,516,1029,423,127,150
1,264,536,199,404,889,382,151,407
1,354,673,170,342,636,237,164,444
1,381,833,151,231,502,209,177,483
1,417,935,138,191,350,201,187,508
1,434,870,127,168,278,182,189,504
1,381,817,119,129,236,125,168,346
1,303,712,98,101,171,102,126,293
1,271,523,73,70,103,73,89,223
1,205,289,28,48,82,63,61,160
1,124,231,26,37,74,45,44,119
1,101,150,22,32,53,34,35,71
1,75,122,21,36,39,25,26,62
1,61,69,17,31,27,19,20,49
1,45,62,15,29,20,18,16,41
1,32,48,14,28,20,18,17,32
1,26,33,13,28,18,22,16,24
1,23,28,12,16,14,20,16,23
1,20,20,12,16,17,20,15,19
1,18,18,10,15,16,21,16,15
1,13,15,10,13,15,20,14,15
1,13,15,10,17,18,13,14,13
1,15,25,11,20,18,12,14,12
1,15,29,11,20,17,16,14,11
1,16,29,12,21,16,17,14,9
1,16,30,11,22,16,22,13,10
1,16,32,13,21,13,40,14,10
1,15,26,14,17,12,47,16,10
1,14,21,15,17,14,48,19,14
1,13,20,15,18,16,48,22,15
1,12,19,15,16,17,45,22,15
1,11,13,13,14,17,30,22,17
1,10,11,12,13,16,19,20,17
1,11,14,11,12,14,10,17,15
1,11,15,12,12,13,9,13,13
1,12,16,12,13,13,9,13,12
1,12,16,13,15,13,10,13,12
1,12,16,13,15,14,10,15,13
1,12,15,13,16,13,9,15,14
1,12,15,12,15,13,9,14,15
1,11,15,13,15,11,10,13,15
1,12,14,13,16,12,10,12,14
1,13,15,12,16,12,12,9,14
1,31,16,13,16,13,10,11,14
1,33,16,13,17,14,11,11,13
2,38,18,14,16,15,12,11,13
2,45,23,14,15,16,12,12,12
2,48,30,15,13,16,10,13,11
2,48,122,14,15,15,12,13,10
2,49,126,14,12,14,13,13,10
2,47,134,12,14,15,11,13,10
2,41,136,11,15,12,12,13,12
2,38,135,12,16,12,13,12,12
2,28,67,12,15,13,12,11,13
2,26,61,13,15,13,12,13,13
2,33,39,13,13,11,12,14,16
2,36,34,14,12,13,12,14,16
2,37,35,13,11,13,12,15,18
2,39,34,13,11,14,12,15,19
2,40,30,12,12,15,13,15,21
2,34,35,13,14,15,14,14,19
2,33,31,12,14,14,14,13,19
2,42,73,15,18,124,67,22,21
2,43,75,16,18,133,71,24,21
2,42,77,17,18,136,73,24,20
2,41,76,16,17,139,73,24,20
2,46,77,19,23,147,78,30,101
2,48,214,20,22,96,51,30,154
2,47,229,18,24,98,49,31,170
2,52,252,18,24,97,50,33,181
2,56,267,18,34,106,60,35,239
2,51,269,14,32,139,63,38,248
2,43,168,12,37,140,58,39,244
2,42,148,13,36,131,55,40,238
2,35,103,14,37,131,53,38,231
2,29,55,18,29,120,39,36,174
2,29,43,18,31,73,26,30,126
2,27,39,17,26,50,18,22,69
2,23,28,17,26,46,18,17,53
2,22,25,16,25,42,19,16,44
2,21,23,12,25,42,20,15,33
2,16,20,12,20,19,16,15,27
2,15,18,13,17,19,14,15,22
2,14,16,13,17,19,13,15,18
2,14,13,12,16,17,12,15,19
2,14,12,14,14,15,11,16,16
2,14,13,14,12,15,12,13,15
2,13,13,13,12,12,14,13,14
2,13,18,15,12,13,13,12,13
2,13,18,16,13,13,14,12,12
2,14,17,14,13,13,14,11,12
2,13,18,17,15,14,14,11,14
2,13,21,20,20,13,13,10,13
2,12,18,22,37,15,14,11,13
2,12,18,24,38,15,12,12,14
3,12,18,27,88,20,13,13,15
3,14,20,35,99,23,13,14,15
3,13,17,36,102,37,16,14,15
3,16,16,35,98,48,20,15,14
3,17,18,35,100,51,22,15,12
3,17,17,33,63,50,23,15,11
3,16,16,22,45,49,23,15,10
3,17,16,20,35,41,21,16,8
3,14,15,20,32,27,17,16,8
3,12,14,16,27,22,16,15,9
3,12,15,16,18,19,15,16,10
3,12,13,16,16,20,14,16,14
3,11,14,15,14,17,15,15,14
3,11,14,12,13,16,14,13,15
3,11,16,13,15,15,13,13,14
3,12,17,11,14,16,12,13,14
3,12,17,14,14,13,13,13,13
3,12,16,16,15,14,13,13,13
3,14,16,15,15,13,15,13,13
3,13,14,15,11,13,14,13,14
3,12,15,15,12,12,14,12,13
3,11,14,14,12,12,13,11,12
3,11,14,14,11,12,12,10,13
3,10,16,15,13,14,10,10,13
3,10,14,15,14,15,10,11,13
3,11,12,15,14,14,12,10,14
3,13,12,14,14,14,12,12,13
3,14,13,15,14,14,12,14,13
3,12,13,16,14,13,12,14,12
3,13,16,19,14,11,12,15,13
3,12,15,19,14,12,11,15,11
3,12,15,18,14,12,11,16,12
3,11,15,17,15,11,11,14,12
3,11,15,15,15,10,11,15,14
3,10,14,12,16,11,11,16,14
3,12,16,13,17,11,13,16,15
3,11,16,13,18,10,14,17,16
3,10,16,13,18,11,16,16,16
3,13,17,14,17,11,16,15,15
3,13,16,14,17,14,16,14,13
3,12,15,12,16,13,14,14,11
3,12,17,14,14,15,15,13,11
3,14,17,13,14,15,12,13,12
3,13,16,14,19,15,13,13,12
3,13,17,16,29,13,14,11,15
3,15,19,30,77,21,14,12,15
3,14,18,33,86,22,14,11,14
3,14,21,42,98,25,13,12,13
4,14,26,71,161,29,13,13,14
4,16,29,79,178,31,13,14,13
4,17,29,84,175,28,13,13,13
4,18,33,84,177,32,12,13,14
4,19,37,116,224,35,15,14,17
4,23,34,106,197,36,20,14,18
4,47,35,104,185,38,32,18,20
4,52,41,99,180,42,45,26,28
4,54,37,99,177,41,52,29,32
4,81,35,60,109,37,53,41,128
4,104,48,53,85,42,54,59,204
4,102,47,63,223,69,51,64,219
4,102,61,173,481,126,45,63,223
4,131,248,183,492,131,44,111,268
4,156,368,187,497,133,62,141,272
4,145,391,250,578,138,84,144,257
4,146,396,270,580,136,133,146,249
4,145,397,233,434,105,224,146,245
4,121,323,261,456,148,245,117,197
4,65,180,282,500,354,272,79,146
4,56,119,234,419,480,344,75,66
4,55,106,213,369,596,389,83,61
4,55,98,202,341,669,400,92,63
4,65,95,180,324,819,458,106,65
4,63,89,149,291,889,457,111,65
4,67,93,151,303,978,459,118,69
4,62,91,148,331,989,456,114,56
4,62,90,142,368,1000,432,110,53
4,50,64,115,371,949,379,99,52
4,49,57,108,367,935,396,94,51
4,46,48,95,349,817,362,77,46
4,43,49,88,339,775,307,66,43
4,37,46,82,282,741,285,60,40
4,34,45,70,269,726,266,54,31
4,34,53,75,236,670,269,53,32
4,33,56,88,263,634,257,52,34
4,37,54,86,267,586,252,54,37
4,35,50,83,261,546,241,54,37
4,37,57,106,276,605,230,51,38
4,35,50,99,288,526,157,42,34
4,30,49,87,255,585,92,31,25
4,23,43,85,236,615,109,32,22
4,55,70,107,324,612,109,34,33
4,58,70,99,395,566,106,32,32
4,60,71,97,392,603,107,80,36
4,61,69,94,393,565,268,142,40
4,61,70,94,385,553,274,154,40
4,39,49,83,341,630,341,156,36
4,34,42,67,223,583,361,162,39
4,32,41,68,200,554,366,154,38
4,35,44,68,209,596,296,236,51
4,40,51,72,205,646,292,241,57
5,38,47,55,159,689,249,245,55
5,36,43,50,156,705,306,250,54
5,35,42,52,164,713,317,247,54
5,32,41,51,151,680,307,129,39
5,25,37,59,232,669,322,105,30
5,24,38,64,252,592,313,102,28
5,23,38,65,260,529,244,147,27
5,22,37,62,259,485,259,144,27
5,20,34,71,271,547,321,144,29
5,20,23,66,258,536,323,154,29
5,21,20,63,259,600,317,164,30
5,23,27,65,251,610,316,152,30
5,52,43,69,262,627,289,160,69
5,56,44,61,289,564,218,165,76
5,57,46,55,255,607,22