134,186,240,568,996,909,285,498,2
124,181,240,603,1052,940,280,435,2
151,216,295,646,1208,911,317,434,2
163,246,347,725,1279,959,357,500,2
189,257,380,755,1373,836,408,480,2
196,271,390,763,1374,865,406,466,2
206,270,395,729,1308,863,393,473,2
189,246,367,681,1206,935,358,481,2
180,227,311,621,1137,975,334,434,2
161,203,261,643,1108,1041,278,430,2
171,197,245,658,1019,1027,269,445,2
164,198,244,665,1067,1007,285,437,2
162,186,211,639,1079,954,282,439,2
159,168,201,585,1045,921,259,409,2
146,172,190,523,1032,865,250,411,2
153,181,261,618,1130,931,261,386,2
173,175,251,610,1161,923,265,489,2
167,174,260,618,1134,924,252,449,2
176,188,278,622,1148,868,256,455,2
207,191,287,606,1133,886,264,519,2
193,182,265,634,1161,926,285,508,2
173,183,265,621,1161,942,273,420,2
183,204,296,683,1192,934,284,444,2
173,188,273,656,1148,894,291,435,2
172,186,324,686,1150,926,409,391,2
160,159,284,535,1120,827,383,390,2
165,166,289,540,1033,866,380,442,2
162,195,278,455,1000,917,390,464,2
164,202,281,461,1045,945,381,478,2
119,191,202,413,912,993,251,476,2
157,205,236,486,872,987,290,502,2
160,216,238,513,1031,959,283,428,2
163,201,263,560,1036,907,272,354,2
185,233,326,640,1100,962,318,396,2
197,242,338,669,1162,934,310,400,2
166,233,319,631,1146,918,286,364,2
162,217,313,619,1148,916,291,454,2
175,222,311,641,1188,978,283,478,2
152,190,241,577,1170,900,232,439,2
140,190,232,538,1143,792,216,435,2
135,191,226,514,1098,783,203,437,2
133,210,233,519,993,910,221,381,2
103,178,186,412,900,876,203,353,2
98,184,188,379,861,907,197,346,2
91,175,166,342,815,903,197,303,2
95,178,168,393,853,932,189,312,2
104,166,183,366,903,791,182,303,2
110,167,186,399,997,785,221,323,2
113,169,202,465,1023,771,224,316,2
119,184,204,462,1038,833,230,339,2
118,182,217,475,1071,822,265,394,2
140,208,262,594,1119,867,286,403,2
139,205,256,598,1162,850,271,403,2
135,192,239,557,1136,848,268,430,2
137,180,246,597,1165,792,268,514,2
147,190,248,575,1153,793,255,483,2
117,155,190,451,1108,753,210,457,2
135,156,189,401,1060,805,210,492,2
150,156,203,430,1055,787,212,531,2
148,190,218,399,1099,820,210,478,2
136,184,204,410,1131,839,201,439,2
138,178,188,390,1129,932,231,458,2
115,177,175,409,1074,850,235,413,2
118,200,177,415,1082,888,257,328,2
112,163,147,430,1082,909,260,346,2
126,177,143,389,1018,864,251,420,2
118,176,149,437,1027,788,224,398,2
117,171,149,444,1033,822,213,377,2
133,174,172,462,1061,891,242,477,2
135,172,178,438,1008,836,243,430,2
124,154,198,472,1005,835,233,354,2
140,160,224,492,979,845,257,390,2
140,180,231,489,920,809,254,393,2
103,175,222,462,829,735,194,269,2
117,195,228,496,891,815,213,282,2
131,195,222,498,927,832,244,370,2
116,200,195,450,892,827,245,383,2
118,198,192,421,889,840,242,389,2
119,187,161,398,896,803,240,450,2
110,185,183,374,887,725,222,450,2
103,186,174,337,884,740,211,420,2
98,173,164,322,852,680,173,414,2
106,185,186,366,990,762,215,495,2
106,182,197,357,1021,798,219,454,2
110,179,187,388,961,825,228,450,2
118,189,205,460,1002,824,223,461,2
122,196,207,451,997,879,224,436,2
115,165,185,439,978,814,215,406,2
117,162,183,438,952,804,219,408,2
106,144,160,378,973,803,200,399,2
89,131,129,293,925,794,179,350,2
104,135,126,326,955,762,179,357,2
106,151,139,291,883,778,170,344,2
107,145,149,353,903,789,169,335,2
105,137,155,354,866,815,164,328,2
103,140,171,340,850,818,172,328,2
85,142,172,308,874,825,166,315,2
77,137,172,363,897,835,181,286,2
78,136,155,295,889,820,178,325,2
88,143,145,301,955,853,197,331,2
87,134,133,291,925,815,187,372,2
84,119,137,295,880,791,189,356,2
86,107,132,259,860,814,165,338,2
86,118,151,282,896,811,178,328,2
89,128,171,329,827,738,174,331,2
88,125,165,329,834,757,180,310,2
92,128,168,347,896,755,187,422,2
97,128,157,323,891,665,174,419,2
89,123,141,310,892,621,160,397,2
88,158,125,257,983,586,178,400,2
90,153,127,299,1034,582,178,382,2
99,147,120,347,1055,587,180,324,2
90,152,136,370,1062,597,180,307,2
92,147,138,385,1094,632,182,328,2
93,94,143,403,1013,689,169,377,2
99,114,141,408,1060,743,169,374,2
87,125,150,371,1000,771,160,325,2
103,142,182,462,1057,850,204,341,2
107,149,185,448,1052,815,208,341,2
100,164,183,447,1092,858,201,272,2
102,162,190,453,1025,789,205,266,2
106,163,186,459,1047,780,208,277,2
93,149,142,368,1005,779,162,316,2
96,143,161,370,936,874,188,303,2
112,155,192,398,965,817,224,328,2
108,156,187,394,1035,849,224,332,2
124,161,188,381,1001,806,243,443,2
127,162,194,382,970,738,254,423,2
127,157,179,380,998,649,231,419,2
117,140,143,335,945,634,188,397,2
123,148,157,304,845,640,193,403,2
122,143,159,344,912,694,192,340,2
123,137,151,328,947,742,182,371,2
120,139,138,343,959,806,182,371,2
118,126,137,390,997,829,194,382,2
102,102,106,395,1023,912,187,373,2
82,89,101,394,990,896,159,323,2
102,94,107,415,987,828,182,347,2
108,105,137,422,1019,749,180,376,2
111,112,156,445,1006,747,173,381,2
112,116,164,456,973,719,182,380,2
115,130,192,466,1047,795,200,375,2
103,144,211,467,1128,834,184,297,2
94,139,195,453,1064,866,184,313,2
88,147,186,448,1049,861,172,305,2
102,156,202,483,1105,871,172,314,2
99,159,177,448,1051,777,165,293,2
92,149,158,421,933,796,158,352,2
96,147,158,420,941,850,160,317,2
95,150,147,345,1001,836,182,308,2
94,152,131,282,983,753,191,315,2
93,142,140,260,946,803,181,314,2
91,139,136,278,958,785,189,282,2
84,147,133,261,961,718,198,275,2
96,146,173,359,952,719,208,285,2
86,137,163,350,909,791,183,283,2
97,142,163,367,965,805,199,292,2
96,143,159,368,932,829,190,266,2
117,137,174,369,932,844,187,287,2
110,126,140,328,876,885,186,316,2
127,140,155,391,924,837,197,312,2
122,140,150,422,875,907,189,329,2
192,160,160,426,936,929,211,320,2
202,153,148,435,935,930,204,273,2
228,156,157,428,972,940,193,305,2
237,164,145,367,938,912,188,342,2
242,169,144,356,918,853,186,329,2
198,152,151,390,964,856,168,334,2
184,153,149,389,974,845,172,353,2
149,147,141,370,958,819,173,309,2
120,125,141,368,992,829,169,262,2
112,129,148,340,1036,818,175,256,2
106,131,142,297,941,757,170,248,2
93,137,149,315,964,754,178,239,2
97,133,144,322,941,768,168,271,2
113,133,160,348,899,847,186,390,2
104,108,142,336,838,806,172,384,2
101,95,136,352,859,831,172,391,2
94,86,133,353,886,832,160,387,2
95,108,151,355,928,835,166,375,2
85,110,149,366,946,781,158,332,2
101,120,163,384,1018,810,183,359,2
93,126,163,411,1001,786,181,360,2
99,134,165,465,1004,828,181,357,2
108,122,157,461,972,816,181,369,2
99,108,140,440,953,788,184,394,2
85,110,131,434,917,748,155,377,2
85,101,122,398,963,775,151,380,2
86,94,122,342,935,729,148,395,2
74,92,111,359,969,734,150,373,2
78,98,114,343,938,751,145,266,2
80,103,118,371,907,739,151,296,2
87,113,126,363,965,709,171,320,2
83,119,118,350,943,714,180,319,2
83,134,131,370,909,738,171,315,2
96,141,137,398,979,735,160,337,2
114,138,142,378,1022,774,173,311,2
110,135,139,369,912,819,161,284,2
113,139,147,368,892,856,157,259,2
121,125,135,332,975,813,176,244,2
113,135,155,310,969,846,198,213,2
104,119,146,293,918,798,207,363,2
113,118,146,321,992,719,212,378,2
113,122,143,310,1045,648,215,410,2
99,130,140,307,952,656,199,409,2
94,108,116,329,938,552,178,410,2
108,118,116,316,992,561,161,363,2
167,123,115,299,964,586,173,420,2
183,142,135,298,950,617,160,416,2
189,142,156,329,972,589,189,460,2
190,148,162,322,955,684,189,462,2
180,158,172,329,902,777,187,434,2
121,158,168,309,869,764,161,363,2
104,131,155,295,836,731,171,343,2
93,125,140,242,784,756,133,315,2
104,147,172,319,949,716,148,313,2
100,142,163,312,962,616,133,261,2
103,154,174,331,983,694,159,299,2
111,174,215,366,1069,773,213,305,2
116,179,228,387,1130,814,230,304,2
109,162,209,358,1073,860,229,306,2
109,160,210,372,1065,924,234,307,2
137,149,207,359,1078,964,238,364,2
131,136,171,327,1045,977,194,364,2
129,132,186,356,1011,922,192,366,2
134,138,191,324,939,920,199,364,2
130,132,183,306,898,879,198,366,2
105,123,180,314,876,811,194,317,2
97,137,170,312,775,760,194,330,2
92,130,131,251,784,814,186,306,2
83,117,110,223,811,734,168,304,2
95,114,120,234,897,751,186,353,2
83,124,122,268,944,722,168,322,2
77,94,119,289,1020,881,167,305,2
79,98,119,323,1005,806,153,301,2
82,97,145,410,1049,831,162,297,2
70,100,141,409,1010,808,139,226,2
97,91,144,390,1003,846,147,292,2
94,99,156,409,1076,696,136,321,2
93,110,155,384,1032,709,131,318,2
100,126,174,421,998,785,140,324,2
104,131,183,420,1009,840,170,333,2
93,133,200,469,1032,869,194,267,2
99,135,198,452,903,824,212,340,2
107,130,210,479,958,900,224,349,2
121,133,207,426,996,825,235,360,2
129,137,233,479,983,822,228,389,2
120,132,217,432,986,892,207,390,2
119,123,212,421,970,937,194,292,2
138,141,232,464,1000,910,189,311,2
127,142,215,431,953,947,172,343,2
115,131,177,368,902,913,148,307,2
125,135,182,375,788,783,139,315,2
133,136,190,414,917,736,155,374,2
106,108,149,315,917,739,148,370,2
91,93,134,285,865,720,141,347,2
89,94,127,291,898,700,148,358,2
88,108,129,300,960,726,161,367,2
93,111,148,331,957,752,186,303,2
100,122,155,363,949,744,195,282,2
106,122,164,376,941,742,191,254,2
119,141,179,407,1030,739,198,329,2
109,127,168,389,1068,781,191,302,2
90,122,144,341,1000,761,140,322,2
85,120,146,340,1002,757,130,336,2
84,115,148,338,1011,785,163,337,2
78,95,139,357,998,890,163,284,2
89,99,144,370,954,878,177,328,2
95,105,152,400,967,860,177,311,2
95,112,138,379,999,839,181,317,2
91,107,118,359,1008,788,155,318,2
81,104,109,302,923,719,140,297,2
73,101,106,293,866,643,120,240,2
82,114,120,292,879,691,151,305,2
86,102,129,319,866,669,143,293,2
94,99,137,354,909,689,149,297,2
96,100,144,367,934,673,168,298,2
94,106,151,381,997,767,174,303,2
86,86,124,324,966,777,161,265,2
83,101,126,310,907,836,181,251,2
78,99,117,273,894,870,198,259,2
74,99,111,251,882,890,195,258,2
81,93,111,313,941,844,201,270,2
84,104,138,348,934,846,198,240,2
89,91,145,392,1006,847,196,303,2
87,94,150,409,1024,889,178,283,2
93,103,152,418,1049,846,183,283,2
95,123,150,379,995,840,185,304,2
94,147,162,436,1033,808,209,317,2
89,156,156,397,922,821,204,257,2
91,158,152,400,867,722,204,277,2
96,174,168,424,895,705,200,269,2
95,168,185,419,870,816,203,240,2
90,144,167,337,878,853,183,226,2
87,135,162,342,983,809,176,292,2
97,138,170,362,1051,855,216,286,2
90,124,155,340,997,845,211,280,2
97,132,154,355,1030,748,201,297,2
96,130,150,400,960,792,206,298,2
102,137,155,410,926,797,219,220,2
94,140,155,381,848,839,187,237,2
111,143,196,478,1059,896,238,265,2
96,134,173,444,994,893,228,238,2
95,133,163,402,1017,797,217,226,2
86,125,159,393,979,774,201,224,2
98,124,171,394,1023,684,218,218,2
72,110,121,252,759,587,150,191,2
77,109,132,282,844,609,180,201,2
87,122,139,286,854,620,196,213,2
89,123,140,291,926,625,201,220,2
73,113,119,286,865,654,194,204,2
76,110,123,346,938,704,196,199,2
99,111,122,343,902,704,177,182,2
98,107,121,348,886,752,158,167,2
107,112,125,355,902,856,160,191,2
108,111,123,349,874,864,137,198,2
105,114,111,288,887,859,136,185,2
86,126,124,341,890,847,148,189,2
81,117,114,337,883,835,149,190,2
81,116,102,298,726,783,140,183,2
86,114,105,314,863,753,143,168,2
86,117,110,316,860,741,147,164,2
89,109,121,330,957,754,173,169,2
86,106,128,326,944,721,172,163,2
89,109,141,343,966,664,171,228,2
85,116,140,332,864,662,159,233,2
90,116,157,363,883,781,187,243,2
81,99,135,288,775,732,156,232,2
85,116,130,275,739,708,153,231,2
73,114,121,286,777,723,152,162,2
76,109,125,313,842,759,163,179,2
76,98,98,262,762,662,127,172,2
89,121,112,266,757,677,131,182,2
90,143,125,265,772,740,133,187,2
90,140,122,240,762,723,132,207,2
91,143,125,235,758,682,142,235,2
91,145,129,252,777,674,151,239,2
89,142,138,275,780,652,150,245,2
84,107,132,309,834,715,151,248,2
96,119,135,312,861,722,155,249,2
98,125,136,302,846,720,145,237,2
101,129,139,325,838,723,148,234,2
95,119,138,351,884,787,140,226,2
103,130,138,333,858,698,136,222,2
97,117,137,333,817,705,132,268,2
92,105,128,319,797,694,125,239,2
87,110,120,284,817,687,110,246,2
90,112,102,224,754,662,119,254,2
79,92,92,209,769,635,117,270,2
72,96,88,199,727,716,119,199,2
81,99,85,197,794,723,111,196,2
77,83,91,212,760,773,111,186,2
69,85,81,198,762,733,91,167,2
75,93,83,190,723,754,106,159,2
93,96,95,251,804,677,118,198,2
87,96,100,263,773,673,140,210,2
92,99,95,252,807,654,148,209,2
93,92,104,279,745,646,158,228,2
91,88,104,295,727,624,153,216,2
66,80,99,251,741,608,145,206,2
63,82,91,261,699,600,144,229,2
65,105,93,256,647,547,136,227,2
59,98,90,245,678,606,130,232,2
66,98,93,229,699,634,131,239,2
71,99,97,250,711,636,141,208,2
70,101,95,221,749,607,122,170,2
68,86,122,293,798,699,140,193,2
71,94,120,276,780,729,137,163,2
66,95,118,280,803,792,138,199,2
68,95,110,254,736,754,134,209,2
65,86,116,268,685,778,134,223,2
61,89,87,200,645,739,119,219,2
59,80,78,185,622,654,115,223,2
64,87,109,266,630,547,132,218,2
72,110,139,324,726,634,141,276,2
74,112,136,320,739,641,139,272,2
75,104,134,312,733,572,138,264,2
79,108,139,330,871,618,148,263,2
84,110,121,274,855,665,132,254,2
76,83,81,193,767,634,118,197,2
73,78,81,177,740,610,129,203,2
71,72,78,176,729,606,126,217,2
73,79,69,156,688,651,115,237,2
83,89,126,303,802,696,163,226,2
84,90,128,310,831,693,166,245,2
84,90,128,318,810,711,156,224,2
87,96,137,334,811,724,169,235,2
92,106,145,356,801,717,177,227,2
70,85,94,255,808,705,129,215,2
64,82,89,247,761,658,119,222,2
64,85,86,238,770,641,117,225,2
71,101,99,251,828,685,140,222,2
